1.386185418626036882e+09,2.321000000000000000e+03,2.331000000000000000e+03,3.677349154904347994e-01
1.386185418629942894e+09,2.322000000000000000e+03,2.340000000000000000e+03,3.995855402264728573e-01
1.386185418633848906e+09,2.325000000000000000e+03,2.348000000000000000e+03,3.604199516711060758e-01
1.386185418637754917e+09,2.336000000000000000e+03,2.358000000000000000e+03,3.726919197380023085e-01
1.386185418641661882e+09,2.311000000000000000e+03,2.332000000000000000e+03,3.772147158892716901e-01
1.386185418645567894e+09,2.310000000000000000e+03,2.336000000000000000e+03,3.787163552512403664e-01
1.386185418649473906e+09,2.308000000000000000e+03,2.338000000000000000e+03,3.564538858977486235e-01
1.386185418653379917e+09,2.321000000000000000e+03,2.338000000000000000e+03,3.922742058715401603e-01
1.386185418657286882e+09,2.330000000000000000e+03,2.347000000000000000e+03,3.735064272171060296e-01
1.386185418661192894e+09,2.310000000000000000e+03,2.340000000000000000e+03,3.957689023096376824e-01
1.386185418665098906e+09,2.296000000000000000e+03,2.332000000000000000e+03,3.733571629232171896e-01
1.386185418669004917e+09,2.291000000000000000e+03,2.337000000000000000e+03,4.020143075925574072e-01
1.386185418672911882e+09,2.310000000000000000e+03,2.331000000000000000e+03,3.915907627564819693e-01
1.386185418676817894e+09,2.333000000000000000e+03,2.355000000000000000e+03,3.727560783765087038e-01
1.386185418680723906e+09,2.297000000000000000e+03,2.327000000000000000e+03,3.649179427360200734e-01
1.386185418684629917e+09,2.295000000000000000e+03,2.323000000000000000e+03,3.926840000926931085e-01
1.386185418688536882e+09,2.310000000000000000e+03,2.332000000000000000e+03,3.510501213174179735e-01
1.386185418692442894e+09,2.305000000000000000e+03,2.338000000000000000e+03,4.089800063648437733e-01
1.386185418696348906e+09,2.305000000000000000e+03,2.346000000000000000e+03,3.723945767401883877e-01
1.386185418700254917e+09,2.307000000000000000e+03,2.342000000000000000e+03,3.916264246713062613e-01
1.386185418704161882e+09,2.284000000000000000e+03,2.319000000000000000e+03,3.857491290507386594e-01
1.386185418708067894e+09,2.309000000000000000e+03,2.327000000000000000e+03,3.597636805180517428e-01
1.386185418711973906e+09,2.318000000000000000e+03,2.339000000000000000e+03,3.804574082219241982e-01
1.386185418715879917e+09,2.331000000000000000e+03,2.344000000000000000e+03,3.795085608218310425e-01
1.386185418719786882e+09,2.338000000000000000e+03,2.348000000000000000e+03,3.519473632719760658e-01
1.386185418723692894e+09,2.297000000000000000e+03,2.317000000000000000e+03,3.971967089250751926e-01
1.386185418727598906e+09,2.296000000000000000e+03,2.329000000000000000e+03,3.402441278281462811e-01
1.386185418731504917e+09,2.303000000000000000e+03,2.335000000000000000e+03,3.914709713012879400e-01
1.386185418735411882e+09,2.314000000000000000e+03,2.337000000000000000e+03,3.768002912195380638e-01
1.386185418739317894e+09,2.315000000000000000e+03,2.335000000000000000e+03,4.128485510268016245e-01
1.386185418743223906e+09,2.275000000000000000e+03,2.314000000000000000e+03,3.805328024655235675e-01
1.386185418747129917e+09,2.289000000000000000e+03,2.320000000000000000e+03,4.136593697380985812e-01
1.386185418751036882e+09,2.296000000000000000e+03,2.331000000000000000e+03,3.414091079439087739e-01
1.386185418754942894e+09,2.308000000000000000e+03,2.337000000000000000e+03,4.233390015884160862e-01
1.386185418758848906e+09,2.327000000000000000e+03,2.334000000000000000e+03,3.749996158430257687e-01
1.386185418762754917e+09,2.291000000000000000e+03,2.307000000000000000e+03,3.581148711334537493e-01
1.386185418766661882e+09,2.297000000000000000e+03,2.300000000000000000e+03,4.078511042442883872e-01
1.386185418770567894e+09,2.307000000000000000e+03,2.327000000000000000e+03,3.658656045461490258e-01
1.386185418774473906e+09,2.322000000000000000e+03,2.327000000000000000e+03,3.517080242707778526e-01
1.386185418778379917e+09,2.321000000000000000e+03,2.338000000000000000e+03,4.146911582190773160e-01
1.386185418782286882e+09,2.291000000000000000e+03,2.308000000000000000e+03,3.554298451204478404e-01
1.386185418786192894e+09,2.293000000000000000e+03,2.313000000000000000e+03,3.917648321367264153e-01
1.386185418790098906e+09,2.299000000000000000e+03,2.325000000000000000e+03,3.715731049363342198e-01
1.386185418794004917e+09,2.312000000000000000e+03,2.320000000000000000e+03,3.811115851037188973e-01
1.386185418797911882e+09,2.315000000000000000e+03,2.328000000000000000e+03,3.963577722667203096e-01
1.386185418801817894e+09,2.295000000000000000e+03,2.309000000000000000e+03,3.790904473842907629e-01
1.386185418805723906e+09,2.290000000000000000e+03,2.312000000000000000e+03,3.649053522392901039e-01
1.386185418809629917e+09,2.287000000000000000e+03,2.316000000000000000e+03,3.918287841698016027e-01
1.386185418813536882e+09,2.309000000000000000e+03,2.326000000000000000e+03,3.696624810360724656e-01
1.386185418817442894e+09,2.322000000000000000e+03,2.338000000000000000e+03,3.631162132892050698e-01
1.386185418821348906e+09,2.283000000000000000e+03,2.314000000000000000e+03,3.750600106279556867e-01
1.386185418825254917e+09,2.283000000000000000e+03,2.312000000000000000e+03,3.664961619315521002e-01
1.386185418829161882e+09,2.291000000000000000e+03,2.316000000000000000e+03,3.845310565998897312e-01
1.386185418833067894e+09,2.309000000000000000e+03,2.327000000000000000e+03,3.758041675229034650e-01
1.386185418836973906e+09,2.344000000000000000e+03,2.340000000000000000e+03,3.596252429226727276e-01
1.386185418840879917e+09,2.343000000000000000e+03,2.322000000000000000e+03,3.923728810081852370e-01
1.386185418844786882e+09,2.337000000000000000e+03,2.326000000000000000e+03,3.822209324027938671e-01
1.386185418848692894e+09,2.327000000000000000e+03,2.340000000000000000e+03,3.476418854263401137e-01
1.386185418852598906e+09,2.317000000000000000e+03,2.345000000000000000e+03,3.543115960924496655e-01
1.386185418856504917e+09,2.356000000000000000e+03,2.353000000000000000e+03,3.757349652249534211e-01
1.386185418860411882e+09,2.306000000000000000e+03,2.338000000000000000e+03,3.587748640537936629e-01
1.386185418864317894e+09,2.288000000000000000e+03,2.327000000000000000e+03,3.743614365345661055e-01
1.386185418868223906e+09,2.312000000000000000e+03,2.337000000000000000e+03,3.598977808341309315e-01
1.386185418872129917e+09,2.324000000000000000e+03,2.345000000000000000e+03,3.868791421537411956e-01
1.386185418876036882e+09,2.343000000000000000e+03,2.359000000000000000e+03,3.860485993192906973e-01
1.386185418879942894e+09,2.326000000000000000e+03,2.345000000000000000e+03,3.870371761786389753e-01
1.386185418883848906e+09,2.289000000000000000e+03,2.329000000000000000e+03,3.770233949555044095e-01
1.386185418887754917e+09,2.292000000000000000e+03,2.334000000000000000e+03,3.716973575384362460e-01
1.386185418891661882e+09,2.316000000000000000e+03,2.341000000000000000e+03,3.939080578837599322e-01
1.386185418895567894e+09,2.344000000000000000e+03,2.359000000000000000e+03,3.858179181378260658e-01
1.386185418899473906e+09,2.350000000000000000e+03,2.359000000000000000e+03,3.738173396961823602e-01
1.386185418903379917e+09,2.330000000000000000e+03,2.341000000000000000e+03,3.922944862032970992e-01
1.386185418907286882e+09,2.327000000000000000e+03,2.350000000000000000e+03,3.685273496661092274e-01
1.386185418911192894e+09,2.328000000000000000e+03,2.343000000000000000e+03,4.009232573087486706e-01
1.386185418915098906e+09,2.380000000000000000e+03,2.367000000000000000e+03,3.664651275957889753e-01
1.386185418919004917e+09,2.373000000000000000e+03,2.370000000000000000e+03,3.733631855671935007e-01
1.386185418922911882e+09,2.320000000000000000e+03,2.345000000000000000e+03,3.774219095722595174e-01
1.386185418926817894e+09,2.326000000000000000e+03,2.342000000000000000e+03,3.722798289444383402e-01
1.386185418930723906e+09,2.351000000000000000e+03,2.351000000000000000e+03,3.753377988042888580e-01
1.386185418934629917e+09,2.381000000000000000e+03,2.358000000000000000e+03,3.667452123445332779e-01
1.386185418938536882e+09,2.373000000000000000e+03,2.363000000000000000e+03,3.664051713691477419e-01
1.386185418942442894e+09,2.327000000000000000e+03,2.339000000000000000e+03,3.958452755377697141e-01
1.386185418946348906e+09,2.337000000000000000e+03,2.339000000000000000e+03,3.536069993550841062e-01
1.386185418950254917e+09,2.347000000000000000e+03,2.346000000000000000e+03,3.690679767767039987e-01
1.386185418954161882e+09,2.346000000000000000e+03,2.341000000000000000e+03,3.723389439235009757e-01
1.386185418958067894e+09,2.344000000000000000e+03,2.348000000000000000e+03,3.730220460439467312e-01
1.386185418961973906e+09,2.340000000000000000e+03,2.330000000000000000e+03,3.916041227627931054e-01
1.386185418965879917e+09,2.303000000000000000e+03,2.336000000000000000e+03,3.942849559290001471e-01
1.386185418969786882e+09,2.343000000000000000e+03,2.349000000000000000e+03,3.630839546249593486e-01
1.386185418973692894e+09,2.342000000000000000e+03,2.355000000000000000e+03,3.964054450352587633e-01
1.386185418977598906e+09,2.368000000000000000e+03,2.372000000000000000e+03,3.509712076076848541e-01
1.386185418981504917e+09,2.361000000000000000e+03,2.345000000000000000e+03,3.780214326218994669e-01
1.386185418985411882e+09,2.363000000000000000e+03,2.341000000000000000e+03,3.654843041791583369e-01
1.386185418989317894e+09,2.383000000000000000e+03,2.360000000000000000e+03,3.690475457951530869e-01
1.386185418993223906e+09,2.381000000000000000e+03,2.358000000000000000e+03,3.706225267374998467e-01
1.386185418997129917e+09,2.389000000000000000e+03,2.367000000000000000e+03,3.875591404101826898e-01
1.386185419001036882e+09,2.362000000000000000e+03,2.346000000000000000e+03,3.788743146686213148e-01
1.386185419004942894e+09,2.324000000000000000e+03,2.345000000000000000e+03,4.041982417833787089e-01
1.386185419008848906e+09,2.333000000000000000e+03,2.348000000000000000e+03,3.691406114986847120e-01
1.386185419012754917e+09,2.327000000000000000e+03,2.343000000000000000e+03,3.902961104720695795e-01
1.386185419016661882e+09,2.338000000000000000e+03,2.358000000000000000e+03,3.939055547059172602e-01
1.386185419020567894e+09,2.339000000000000000e+03,2.341000000000000000e+03,3.832957258999716288e-01
1.386185419024473906e+09,2.286000000000000000e+03,2.343000000000000000e+03,3.898817231060942579e-01
1.386185419028379917e+09,2.295000000000000000e+03,2.339000000000000000e+03,3.933453852084282110e-01
1.386185419032286882e+09,2.317000000000000000e+03,2.345000000000000000e+03,3.783659199183402322e-01
1.386185419036192894e+09,2.339000000000000000e+03,2.342000000000000000e+03,4.204256655738733972e-01
1.386185419040098906e+09,2.304000000000000000e+03,2.319000000000000000e+03,3.613381779462985222e-01
1.386185419044004917e+09,2.299000000000000000e+03,2.312000000000000000e+03,4.166764618524884112e-01
1.386185419047911882e+09,2.323000000000000000e+03,2.326000000000000000e+03,3.838390876630125570e-01
1.386185419051817894e+09,2.371000000000000000e+03,2.345000000000000000e+03,4.288807518147443876e-01
1.386185419055723906e+09,2.470000000000000000e+03,2.355000000000000000e+03,3.631176054846007029e-01
1.386185419059629917e+09,2.537000000000000000e+03,2.351000000000000000e+03,3.927495136228367212e-01
1.386185419063536882e+09,2.562000000000000000e+03,2.329000000000000000e+03,3.430995344535899827e-01
1.386185419067442894e+09,2.616000000000000000e+03,2.335000000000000000e+03,4.341847245369430119e-01
1.386185419071348906e+09,2.650000000000000000e+03,2.343000000000000000e+03,3.935417191934273973e-01
1.386185419075254917e+09,2.649000000000000000e+03,2.393000000000000000e+03,3.899819597398077597e-01
1.386185419079161882e+09,2.588000000000000000e+03,2.421000000000000000e+03,3.943806558517821692e-01
1.386185419083067894e+09,2.455000000000000000e+03,2.399000000000000000e+03,3.766779592827430578e-01
1.386185419086973906e+09,2.433000000000000000e+03,2.407000000000000000e+03,3.471641022358932238e-01
1.386185419090879917e+09,2.402000000000000000e+03,2.395000000000000000e+03,3.973682378237187729e-01
1.386185419094786882e+09,2.405000000000000000e+03,2.381000000000000000e+03,4.077743178052936068e-01
1.386185419098692894e+09,2.391000000000000000e+03,2.376000000000000000e+03,3.749059092800542947e-01
1.386185419102598906e+09,2.355000000000000000e+03,2.359000000000000000e+03,3.796886155422936060e-01
1.386185419106504917e+09,2.358000000000000000e+03,2.362000000000000000e+03,4.009040186127083016e-01
1.386185419110411882e+09,2.390000000000000000e+03,2.363000000000000000e+03,3.759372845501703919e-01
1.386185419114317894e+09,2.372000000000000000e+03,2.370000000000000000e+03,3.641960504458265913e-01
1.386185419118223906e+09,2.382000000000000000e+03,2.371000000000000000e+03,3.667132363279957952e-01
1.386185419122129917e+09,2.347000000000000000e+03,2.343000000000000000e+03,3.834943564573818353e-01
1.386185419126036882e+09,2.378000000000000000e+03,2.338000000000000000e+03,3.887301058661629671e-01
1.386185419129942894e+09,2.406000000000000000e+03,2.351000000000000000e+03,3.736979112352533106e-01
1.386185419133848906e+09,2.410000000000000000e+03,2.351000000000000000e+03,4.017857163780724772e-01
1.386185419137754917e+09,2.405000000000000000e+03,2.355000000000000000e+03,3.941179613500216394e-01
1.386185419141661882e+09,2.332000000000000000e+03,2.348000000000000000e+03,3.908070457039517498e-01
1.386185419145567894e+09,2.317000000000000000e+03,2.327000000000000000e+03,3.950791926414131128e-01
1.386185419149473906e+09,2.308000000000000000e+03,2.329000000000000000e+03,3.766864851045619300e-01
1.386185419153379917e+09,2.347000000000000000e+03,2.323000000000000000e+03,3.782991834944742227e-01
1.386185419157286882e+09,2.376000000000000000e+03,2.330000000000000000e+03,3.622683749019268706e-01
1.386185419161192894e+09,2.334000000000000000e+03,2.313000000000000000e+03,3.479518189208837819e-01
1.386185419165098906e+09,2.324000000000000000e+03,2.309000000000000000e+03,3.611972328687971245e-01
1.386185419169004917e+09,2.274000000000000000e+03,2.304000000000000000e+03,3.713755853613712743e-01
1.386185419172911882e+09,2.307000000000000000e+03,2.311000000000000000e+03,3.439522098948806228e-01
1.386185419176817894e+09,2.365000000000000000e+03,2.321000000000000000e+03,3.305684286548253858e-01
1.386185419180723906e+09,2.347000000000000000e+03,2.307000000000000000e+03,3.627153954044923800e-01
1.386185419184629917e+09,2.307000000000000000e+03,2.308000000000000000e+03,3.508440759206361559e-01
1.386185419188536882e+09,2.285000000000000000e+03,2.313000000000000000e+03,3.915448413515774106e-01
1.386185419192442894e+09,2.323000000000000000e+03,2.319000000000000000e+03,3.305403107077674596e-01
1.386185419196348906e+09,2.377000000000000000e+03,2.340000000000000000e+03,3.534662981867725540e-01
1.386185419200254917e+09,2.395000000000000000e+03,2.309000000000000000e+03,3.579346098075600890e-01
1.386185419204161882e+09,2.360000000000000000e+03,2.313000000000000000e+03,3.503604489529520416e-01
1.386185419208067894e+09,2.344000000000000000e+03,2.321000000000000000e+03,3.568562968442483552e-01
1.386185419211973906e+09,2.363000000000000000e+03,2.320000000000000000e+03,3.846814691799842478e-01
1.386185419215879917e+09,2.443000000000000000e+03,2.344000000000000000e+03,3.465953791778932924e-01
1.386185419219786882e+09,2.420000000000000000e+03,2.332000000000000000e+03,3.815002257025643662e-01
1.386185419223692894e+09,2.379000000000000000e+03,2.321000000000000000e+03,3.634319628222938414e-01
1.386185419227598906e+09,2.360000000000000000e+03,2.329000000000000000e+03,3.871817727201886106e-01
1.386185419231504917e+09,2.327000000000000000e+03,2.348000000000000000e+03,3.902899185264201432e-01
1.386185419235411882e+09,2.298000000000000000e+03,2.349000000000000000e+03,3.636568279652134805e-01
1.386185419239317894e+09,2.314000000000000000e+03,2.342000000000000000e+03,3.965291318636907647e-01
1.386185419243223906e+09,2.279000000000000000e+03,2.326000000000000000e+03,4.301701538342816988e-01
1.386185419247129917e+09,2.280000000000000000e+03,2.324000000000000000e+03,4.021154859070450449e-01
1.386185419251036882e+09,2.289000000000000000e+03,2.344000000000000000e+03,4.128437512765477102e-01
1.386185419254942894e+09,2.309000000000000000e+03,2.342000000000000000e+03,4.254909597626997941e-01
1.386185419258848906e+09,2.322000000000000000e+03,2.348000000000000000e+03,4.328827320206757312e-01
1.386185419262754917e+09,2.289000000000000000e+03,2.326000000000000000e+03,4.324273923017226684e-01
1.386185419266661882e+09,2.303000000000000000e+03,2.338000000000000000e+03,4.423981379004460202e-01
1.386185419270567894e+09,2.317000000000000000e+03,2.353000000000000000e+03,4.487631653368868712e-01
1.386185419274473906e+09,2.333000000000000000e+03,2.361000000000000000e+03,4.469476598033780279e-01
1.386185419278379917e+09,2.332000000000000000e+03,2.373000000000000000e+03,4.202603286208793643e-01
1.386185419282286882e+09,2.301000000000000000e+03,2.356000000000000000e+03,4.410370304051159929e-01
1.386185419286192894e+09,2.307000000000000000e+03,2.367000000000000000e+03,4.276518569696653449e-01
1.386185419290098906e+09,2.323000000000000000e+03,2.368000000000000000e+03,4.416305681145379358e-01
1.386185419294004917e+09,2.326000000000000000e+03,2.378000000000000000e+03,4.641866974370767451e-01
1.386185419297911882e+09,2.310000000000000000e+03,2.379000000000000000e+03,4.237204712570795673e-01
1.386185419301817894e+09,2.264000000000000000e+03,2.360000000000000000e+03,4.338563845071242708e-01
1.386185419305723906e+09,2.274000000000000000e+03,2.366000000000000000e+03,4.402424909583555479e-01
1.386185419309629917e+09,2.343000000000000000e+03,2.357000000000000000e+03,4.099933883105474353e-01
1.386185419313536882e+09,2.408000000000000000e+03,2.367000000000000000e+03,3.891340840487710340e-01
1.386185419317442894e+09,2.386000000000000000e+03,2.369000000000000000e+03,3.550264494503757584e-01
1.386185419321348906e+09,2.241000000000000000e+03,2.347000000000000000e+03,3.688297363233666859e-01
1.386185419325254917e+09,2.186000000000000000e+03,2.354000000000000000e+03,3.338116661962551301e-01
1.386185419329161882e+09,2.209000000000000000e+03,2.338000000000000000e+03,2.976038481707837802e-01
1.386185419333067894e+09,2.228000000000000000e+03,2.342000000000000000e+03,3.205917986273331133e-01
1.386185419336973906e+09,2.261000000000000000e+03,2.347000000000000000e+03,2.940250623655952245e-01
1.386185419340879917e+09,2.240000000000000000e+03,2.320000000000000000e+03,2.907135527289099741e-01
1.386185419344786882e+09,2.247000000000000000e+03,2.315000000000000000e+03,3.009353349266253863e-01
1.386185419348692894e+09,2.255000000000000000e+03,2.327000000000000000e+03,2.655014144566524292e-01
1.386185419352598906e+09,2.287000000000000000e+03,2.339000000000000000e+03,3.138822575905193535e-01
1.386185419356504917e+09,2.308000000000000000e+03,2.341000000000000000e+03,3.212949395616127024e-01
1.386185419360411882e+09,2.298000000000000000e+03,2.324000000000000000e+03,3.242084821815865991e-01
1.386185419364317894e+09,2.277000000000000000e+03,2.310000000000000000e+03,3.744306761362747871e-01
1.386185419368223906e+09,2.295000000000000000e+03,2.319000000000000000e+03,4.026633088169939700e-01
1.386185419372129917e+09,2.296000000000000000e+03,2.314000000000000000e+03,4.098080833252100152e-01
1.386185419376036882e+09,2.298000000000000000e+03,2.314000000000000000e+03,4.578893481052758174e-01
1.386185419379942894e+09,2.282000000000000000e+03,2.304000000000000000e+03,4.284746836651565083e-01
1.386185419383848906e+09,2.262000000000000000e+03,2.296000000000000000e+03,4.605154284408922161e-01
1.386185419387754917e+09,2.253000000000000000e+03,2.293000000000000000e+03,4.534496996403236668e-01
1.386185419391661882e+09,2.255000000000000000e+03,2.292000000000000000e+03,4.610596945809488645e-01
1.386185419395567894e+09,2.275000000000000000e+03,2.307000000000000000e+03,4.595900312355177819e-01
1.386185419399473906e+09,2.265000000000000000e+03,2.289000000000000000e+03,4.536654191451303664e-01
1.386185419403379917e+09,2.255000000000000000e+03,2.269000000000000000e+03,4.407652275690004950e-01
1.386185419407286882e+09,2.267000000000000000e+03,2.287000000000000000e+03,4.344275830042749753e-01
1.386185419411192894e+09,2.281000000000000000e+03,2.292000000000000000e+03,3.892707205421714889e-01
1.386185419415098906e+09,2.289000000000000000e+03,2.298000000000000000e+03,4.021348714268526692e-01
1.386185419419004917e+09,2.291000000000000000e+03,2.297000000000000000e+03,3.853788949871680414e-01
1.386185419422911882e+09,2.267000000000000000e+03,2.284000000000000000e+03,3.548964013746214174e-01
1.386185419426817894e+09,2.276000000000000000e+03,2.286000000000000000e+03,3.554172546237177599e-01
1.386185419430723906e+09,2.284000000000000000e+03,2.294000000000000000e+03,3.680026383475329954e-01
1.386185419434629917e+09,2.286000000000000000e+03,2.292000000000000000e+03,3.531516969398893480e-01
1.386185419438536882e+09,2.298000000000000000e+03,2.298000000000000000e+03,3.691625748038518395e-01
1.386185419442442894e+09,2.287000000000000000e+03,2.282000000000000000e+03,3.332068393173690524e-01
1.386185419446348906e+09,2.279000000000000000e+03,2.283000000000000000e+03,3.411914491219161238e-01
1.386185419450254917e+09,2.294000000000000000e+03,2.286000000000000000e+03,3.474257900144290812e-01
1.386185419454161882e+09,2.319000000000000000e+03,2.291000000000000000e+03,3.318897009969179468e-01
1.386185419458067894e+09,2.324000000000000000e+03,2.302000000000000000e+03,3.328648140689859369e-01
1.386185419461973906e+09,2.299000000000000000e+03,2.293000000000000000e+03,3.504904826811068297e-01
1.386185419465879917e+09,2.302000000000000000e+03,2.298000000000000000e+03,3.788975955616668001e-01
1.386185419469786882e+09,2.310000000000000000e+03,2.311000000000000000e+03,3.411993876486661970e-01
1.386185419473692894e+09,2.309000000000000000e+03,2.311000000000000000e+03,3.898334678250198193e-01
1.386185419477598906e+09,2.325000000000000000e+03,2.323000000000000000e+03,3.693909221091469242e-01
1.386185419481504917e+09,2.304000000000000000e+03,2.295000000000000000e+03,3.818063384313868935e-01
1.386185419485411882e+09,2.301000000000000000e+03,2.289000000000000000e+03,3.773035103124610101e-01
1.386185419489317894e+09,2.319000000000000000e+03,2.298000000000000000e+03,3.697450462098538226e-01
1.386185419493223906e+09,2.329000000000000000e+03,2.298000000000000000e+03,3.670104100241367018e-01
1.386185419497129917e+09,2.344000000000000000e+03,2.307000000000000000e+03,3.999990232154325698e-01
1.386185419501036882e+09,2.333000000000000000e+03,2.288000000000000000e+03,3.926999034501253982e-01
1.386185419504942894e+09,2.321000000000000000e+03,2.286000000000000000e+03,4.216074534240836780e-01
1.386185419508848906e+09,2.335000000000000000e+03,2.293000000000000000e+03,4.187830811344035453e-01
1.386185419512754917e+09,2.344000000000000000e+03,2.298000000000000000e+03,3.803415499219798823e-01
1.386185419516661882e+09,2.353000000000000000e+03,2.311000000000000000e+03,4.208092625132752174e-01
1.386185419520567894e+09,2.324000000000000000e+03,2.298000000000000000e+03,4.019032485646136799e-01
1.386185419524473906e+09,2.310000000000000000e+03,2.294000000000000000e+03,4.005417278584209040e-01
1.386185419528379917e+09,2.303000000000000000e+03,2.299000000000000000e+03,4.090259650735067476e-01
1.386185419532286882e+09,2.297000000000000000e+03,2.306000000000000000e+03,3.957712361858072292e-01
1.386185419536192894e+09,2.303000000000000000e+03,2.328000000000000000e+03,4.075289188563606668e-01
1.386185419540098906e+09,2.293000000000000000e+03,2.318000000000000000e+03,4.427115908611236605e-01
1.386185419544004917e+09,2.266000000000000000e+03,2.310000000000000000e+03,3.917448641043831392e-01
1.386185419547911882e+09,2.274000000000000000e+03,2.311000000000000000e+03,4.125969601322193592e-01
1.386185419551817894e+09,2.279000000000000000e+03,2.314000000000000000e+03,3.927619348178936765e-01
1.386185419555723906e+09,2.289000000000000000e+03,2.325000000000000000e+03,3.883078091468898929e-01
1.386185419559629917e+09,2.271000000000000000e+03,2.325000000000000000e+03,3.821631350116094783e-01
1.386185419563536882e+09,2.244000000000000000e+03,2.307000000000000000e+03,3.895979122857844423e-01
1.386185419567442894e+09,2.277000000000000000e+03,2.283000000000000000e+03,3.946818196153173419e-01
1.386185419571348906e+09,2.295000000000000000e+03,2.274000000000000000e+03,3.595438260350969362e-01
1.386185419575254917e+09,2.307000000000000000e+03,2.282000000000000000e+03,3.469779971327623391e-01
1.386185419579161882e+09,2.283000000000000000e+03,2.270000000000000000e+03,3.741233778174882785e-01
1.386185419583067894e+09,2.258000000000000000e+03,2.255000000000000000e+03,3.746628442072911236e-01
1.386185419586973906e+09,2.247000000000000000e+03,2.254000000000000000e+03,3.500727800631627806e-01
1.386185419590879917e+09,2.239000000000000000e+03,2.249000000000000000e+03,3.584430045578409496e-01
1.386185419594786882e+09,2.239000000000000000e+03,2.259000000000000000e+03,3.328302975708472555e-01
1.386185419598692894e+09,2.253000000000000000e+03,2.257000000000000000e+03,3.735199966983687725e-01
1.386185419602598906e+09,2.231000000000000000e+03,2.243000000000000000e+03,3.305596024899256635e-01
1.386185419606504917e+09,2.235000000000000000e+03,2.257000000000000000e+03,3.597905798756669826e-01
1.386185419610411882e+09,2.246000000000000000e+03,2.270000000000000000e+03,3.472939532712824295e-01
1.386185419614317894e+09,2.248000000000000000e+03,2.287000000000000000e+03,3.621166074301952476e-01
1.386185419618223906e+09,2.263000000000000000e+03,2.278000000000000000e+03,3.487466022768341833e-01
1.386185419622129917e+09,2.239000000000000000e+03,2.254000000000000000e+03,3.776879800641598228e-01
1.386185419626036882e+09,2.247000000000000000e+03,2.270000000000000000e+03,3.646808630034746868e-01
1.386185419629942894e+09,2.277000000000000000e+03,2.300000000000000000e+03,3.750416327878794975e-01
1.386185419633848906e+09,2.257000000000000000e+03,2.274000000000000000e+03,3.732978413387229022e-01
1.386185419637754917e+09,2.278000000000000000e+03,2.291000000000000000e+03,3.790175434056943793e-01
1.386185419641661882e+09,2.265000000000000000e+03,2.278000000000000000e+03,3.904267616252521389e-01
1.386185419645567894e+09,2.271000000000000000e+03,2.287000000000000000e+03,3.842505586402824580e-01
1.386185419649473906e+09,2.285000000000000000e+03,2.290000000000000000e+03,3.970730220966431911e-01
1.386185419653379917e+09,2.294000000000000000e+03,2.295000000000000000e+03,3.956750642270047136e-01
1.386185419657286882e+09,2.297000000000000000e+03,2.291000000000000000e+03,4.049458435369434062e-01
1.386185419661192894e+09,2.284000000000000000e+03,2.277000000000000000e+03,3.743922642648981336e-01
1.386185419665098906e+09,2.280000000000000000e+03,2.276000000000000000e+03,4.013808338184486901e-01
1.386185419669004917e+09,2.272000000000000000e+03,2.272000000000000000e+03,3.982661966799935227e-01
1.386185419672911882e+09,2.281000000000000000e+03,2.296000000000000000e+03,3.942199493473689254e-01
1.386185419676817894e+09,2.295000000000000000e+03,2.310000000000000000e+03,3.793467060312121220e-01
1.386185419680723906e+09,2.282000000000000000e+03,2.296000000000000000e+03,3.942410656659178780e-01
1.386185419684629917e+09,2.247000000000000000e+03,2.261000000000000000e+03,4.028322972340363517e-01
1.386185419688536882e+09,2.264000000000000000e+03,2.291000000000000000e+03,4.028968083452348914e-01
1.386185419692442894e+09,2.347000000000000000e+03,2.353000000000000000e+03,3.704953950504509264e-01
1.386185419696348906e+09,2.377000000000000000e+03,2.339000000000000000e+03,3.621226300741716697e-01
1.386185419700254917e+09,2.396000000000000000e+03,2.282000000000000000e+03,3.770020653359777985e-01
1.386185419704161882e+09,2.409000000000000000e+03,2.211000000000000000e+03,3.865409587142250025e-01
1.386185419708067894e+09,2.526000000000000000e+03,2.256000000000000000e+03,3.615822220035945778e-01
1.386185419711973906e+09,2.566000000000000000e+03,2.286000000000000000e+03,3.706360962187624786e-01
1.386185419715879917e+09,2.589000000000000000e+03,2.362000000000000000e+03,3.858006971925151962e-01
1.386185419719786882e+09,2.512000000000000000e+03,2.368000000000000000e+03,3.723618627787883550e-01
1.386185419723692894e+09,2.393000000000000000e+03,2.340000000000000000e+03,3.944754356151892738e-01
1.386185419727598906e+09,2.336000000000000000e+03,2.337000000000000000e+03,3.995434768910480772e-01
1.386185419731504917e+09,2.284000000000000000e+03,2.318000000000000000e+03,3.856239180289966484e-01
1.386185419735411882e+09,2.281000000000000000e+03,2.323000000000000000e+03,4.380083640822873825e-01
1.386185419739317894e+09,2.247000000000000000e+03,2.292000000000000000e+03,3.771009470780543049e-01
1.386185419743223906e+09,2.250000000000000000e+03,2.295000000000000000e+03,3.916473836445151235e-01
1.386185419747129917e+09,2.215000000000000000e+03,2.268000000000000000e+03,4.209129813093639427e-01
1.386185419751036882e+09,2.226000000000000000e+03,2.277000000000000000e+03,4.322998474038107775e-01
1.386185419754942894e+09,2.210000000000000000e+03,2.269000000000000000e+03,4.351556672401174497e-01
1.386185419758848906e+09,2.219000000000000000e+03,2.272000000000000000e+03,4.176363382522430001e-01
1.386185419762754917e+09,2.243000000000000000e+03,2.268000000000000000e+03,3.787401813530633099e-01
1.386185419766661882e+09,2.234000000000000000e+03,2.250000000000000000e+03,4.222640014858067836e-01
1.386185419770567894e+09,2.236000000000000000e+03,2.229000000000000000e+03,4.262263842303973815e-01
1.386185419774473906e+09,2.266000000000000000e+03,2.253000000000000000e+03,3.876477282279404690e-01
1.386185419778379917e+09,2.231000000000000000e+03,2.199000000000000000e+03,4.551527539504934827e-01
1.386185419782286882e+09,2.208000000000000000e+03,2.198000000000000000e+03,4.005911314257006861e-01
1.386185419786192894e+09,2.235000000000000000e+03,2.225000000000000000e+03,4.230269035193755522e-01
1.386185419790098906e+09,2.218000000000000000e+03,2.206000000000000000e+03,3.970780657560867288e-01
1.386185419794004917e+09,2.222000000000000000e+03,2.203000000000000000e+03,4.120997636832727240e-01
1.386185419797911882e+09,2.232000000000000000e+03,2.205000000000000000e+03,3.519758571261383251e-01
1.386185419801817894e+09,2.229000000000000000e+03,2.207000000000000000e+03,4.142368347884153312e-01
1.386185419805723906e+09,2.237000000000000000e+03,2.196000000000000000e+03,3.551950992640721116e-01
1.386185419809629917e+09,2.237000000000000000e+03,2.190000000000000000e+03,3.507527783196041637e-01
1.386185419813536882e+09,2.245000000000000000e+03,2.196000000000000000e+03,3.532924354119592047e-01
1.386185419817442894e+09,2.249000000000000000e+03,2.216000000000000000e+03,3.856565463830536888e-01
1.386185419821348906e+09,2.234000000000000000e+03,2.205000000000000000e+03,3.534723208307488651e-01
1.386185419825254917e+09,2.223000000000000000e+03,2.199000000000000000e+03,3.410289931668821772e-01
1.386185419829161882e+09,2.225000000000000000e+03,2.214000000000000000e+03,3.597553416932783854e-01
1.386185419833067894e+09,2.237000000000000000e+03,2.227000000000000000e+03,3.710125595317408376e-01
1.386185419836973906e+09,2.257000000000000000e+03,2.250000000000000000e+03,3.365490752946836972e-01
1.386185419840879917e+09,2.235000000000000000e+03,2.240000000000000000e+03,3.491550468671364982e-01
1.386185419844786882e+09,2.237000000000000000e+03,2.253000000000000000e+03,3.389408177240004205e-01
1.386185419848692894e+09,2.242000000000000000e+03,2.260000000000000000e+03,3.584106899379577715e-01
1.386185419852598906e+09,2.238000000000000000e+03,2.262000000000000000e+03,3.736359300840831343e-01
1.386185419856504917e+09,2.248000000000000000e+03,2.272000000000000000e+03,3.829489793348781479e-01
1.386185419860411882e+09,2.234000000000000000e+03,2.269000000000000000e+03,4.070598776582302625e-01
1.386185419864317894e+09,2.216000000000000000e+03,2.259000000000000000e+03,3.956933014606066612e-01
1.386185419868223906e+09,2.236000000000000000e+03,2.279000000000000000e+03,3.921174320441234151e-01
1.386185419872129917e+09,2.247000000000000000e+03,2.291000000000000000e+03,3.795628387468815701e-01
1.386185419876066923e+09,2.242000000000000000e+03,2.287000000000000000e+03,4.080838753927329421e-01
1.386185419879942894e+09,2.245000000000000000e+03,2.289000000000000000e+03,4.160213059861608276e-01
1.386185419883848906e+09,2.227000000000000000e+03,2.273000000000000000e+03,3.942841079858754316e-01
1.386185419887754917e+09,2.239000000000000000e+03,2.282000000000000000e+03,4.085184747002413852e-01
1.386185419891661882e+09,2.264000000000000000e+03,2.299000000000000000e+03,3.907056980877909869e-01
1.386185419895567894e+09,2.287000000000000000e+03,2.329000000000000000e+03,3.908425411866229826e-01
1.386185419899473906e+09,2.291000000000000000e+03,2.327000000000000000e+03,3.863274042621683835e-01
1.386185419903379917e+09,2.277000000000000000e+03,2.314000000000000000e+03,4.101656895882923592e-01
1.386185419907286882e+09,2.289000000000000000e+03,2.328000000000000000e+03,3.624144009426304436e-01
1.386185419911192894e+09,2.294000000000000000e+03,2.328000000000000000e+03,3.723809680421541479e-01
1.386185419915098906e+09,2.312000000000000000e+03,2.346000000000000000e+03,3.638490972753015695e-01
1.386185419919004917e+09,2.303000000000000000e+03,2.328000000000000000e+03,3.756674435091466036e-01
1.386185419922911882e+09,2.290000000000000000e+03,2.312000000000000000e+03,3.431713719272974084e-01
1.386185419926817894e+09,2.299000000000000000e+03,2.303000000000000000e+03,3.557771168076795387e-01
1.386185419930723906e+09,2.303000000000000000e+03,2.324000000000000000e+03,3.816683843501079698e-01
1.386185419934629917e+09,2.315000000000000000e+03,2.329000000000000000e+03,3.916139996502226994e-01
1.386185419938536882e+09,2.297000000000000000e+03,2.318000000000000000e+03,3.703745753506331173e-01
1.386185419942442894e+09,2.281000000000000000e+03,2.313000000000000000e+03,3.750103291955007023e-01
1.386185419946348906e+09,2.287000000000000000e+03,2.320000000000000000e+03,3.557887197113173139e-01
1.386185419950254917e+09,2.287000000000000000e+03,2.323000000000000000e+03,3.498118598811950086e-01
1.386185419954161882e+09,2.292000000000000000e+03,2.323000000000000000e+03,3.624045240552008496e-01
1.386185419958067894e+09,2.296000000000000000e+03,2.319000000000000000e+03,3.708828500593325250e-01
1.386185419961973906e+09,2.292000000000000000e+03,2.316000000000000000e+03,3.577811421452992136e-01
1.386185419965879917e+09,2.281000000000000000e+03,2.300000000000000000e+03,3.537988984971074391e-01
1.386185419969786882e+09,2.282000000000000000e+03,2.287000000000000000e+03,3.385696046758972511e-01
1.386185419973692894e+09,2.290000000000000000e+03,2.289000000000000000e+03,3.259143189695341558e-01
1.386185419977598906e+09,2.303000000000000000e+03,2.296000000000000000e+03,3.706533544678318748e-01
1.386185419981504917e+09,2.276000000000000000e+03,2.263000000000000000e+03,3.810412345195630657e-01
1.386185419985411882e+09,2.271000000000000000e+03,2.264000000000000000e+03,3.679065036924892285e-01
1.386185419989317894e+09,2.280000000000000000e+03,2.270000000000000000e+03,3.750255314335754209e-01
1.386185419993223906e+09,2.287000000000000000e+03,2.276000000000000000e+03,3.615748444679810492e-01
1.386185419997129917e+09,2.305000000000000000e+03,2.294000000000000000e+03,4.281281064017359306e-01
1.386185420001036882e+09,2.290000000000000000e+03,2.285000000000000000e+03,3.855589870113889095e-01
1.386185420004942894e+09,2.278000000000000000e+03,2.287000000000000000e+03,4.175353665431866812e-01
1.386185420008848906e+09,2.290000000000000000e+03,2.302000000000000000e+03,3.700922059858101631e-01
1.386185420012754917e+09,2.285000000000000000e+03,2.308000000000000000e+03,4.093318338931394296e-01
1.386185420016661882e+09,2.311000000000000000e+03,2.332000000000000000e+03,4.017948993199440544e-01
1.386185420020567894e+09,2.295000000000000000e+03,2.312000000000000000e+03,3.947437189851709105e-01
1.386185420024473906e+09,2.285000000000000000e+03,2.307000000000000000e+03,3.944647825226319515e-01
1.386185420028379917e+09,2.283000000000000000e+03,2.297000000000000000e+03,3.808613491007736274e-01
1.386185420032286882e+09,2.296000000000000000e+03,2.315000000000000000e+03,3.821113975681601493e-01
1.386185420036192894e+09,2.305000000000000000e+03,2.333000000000000000e+03,3.881569867037055754e-01
1.386185420040098906e+09,2.289000000000000000e+03,2.320000000000000000e+03,3.856297135026490741e-01
1.386185420044004917e+09,2.263000000000000000e+03,2.305000000000000000e+03,3.712658812250645424e-01
1.386185420047911882e+09,2.274000000000000000e+03,2.309000000000000000e+03,3.153302015399731539e-01
1.386185420051817894e+09,2.279000000000000000e+03,2.308000000000000000e+03,3.400495246418886452e-01
1.386185420055723906e+09,2.296000000000000000e+03,2.328000000000000000e+03,3.266829643471441669e-01
1.386185420059629917e+09,2.280000000000000000e+03,2.320000000000000000e+03,3.208374725719214116e-01
1.386185420063536882e+09,2.256000000000000000e+03,2.310000000000000000e+03,3.707242875645233582e-01
1.386185420067442894e+09,2.270000000000000000e+03,2.325000000000000000e+03,3.283241938949772454e-01
1.386185420071348906e+09,2.269000000000000000e+03,2.327000000000000000e+03,3.442007318379504133e-01
1.386185420075254917e+09,2.277000000000000000e+03,2.339000000000000000e+03,3.424383932470449476e-01
1.386185420079161882e+09,2.268000000000000000e+03,2.334000000000000000e+03,3.318657864182320560e-01
1.386185420083067894e+09,2.240000000000000000e+03,2.327000000000000000e+03,3.207093619003398288e-01
1.386185420086973906e+09,2.250000000000000000e+03,2.337000000000000000e+03,3.347738764721792659e-01
1.386185420090879917e+09,2.268000000000000000e+03,2.336000000000000000e+03,3.738029978358184957e-01
1.386185420094786882e+09,2.288000000000000000e+03,2.331000000000000000e+03,3.450555718537376970e-01
1.386185420098692894e+09,2.296000000000000000e+03,2.333000000000000000e+03,3.881788380975973451e-01
1.386185420102598906e+09,2.286000000000000000e+03,2.323000000000000000e+03,3.436316233077795212e-01
1.386185420106504917e+09,2.293000000000000000e+03,2.333000000000000000e+03,3.744418744376093455e-01
1.386185420110411882e+09,2.251000000000000000e+03,2.282000000000000000e+03,3.788103626355462383e-01
1.386185420114317894e+09,2.244000000000000000e+03,2.281000000000000000e+03,3.905354867770262084e-01
1.386185420118223906e+09,2.236000000000000000e+03,2.270000000000000000e+03,4.242240662571068466e-01
1.386185420122129917e+09,2.212000000000000000e+03,2.243000000000000000e+03,3.730443551262595525e-01
1.386185420126036882e+09,2.218000000000000000e+03,2.261000000000000000e+03,4.116950504253219512e-01
1.386185420129942894e+09,2.223000000000000000e+03,2.259000000000000000e+03,3.742602582200784678e-01
1.386185420133848906e+09,2.225000000000000000e+03,2.271000000000000000e+03,4.106729360523678762e-01
1.386185420137754917e+09,2.220000000000000000e+03,2.272000000000000000e+03,3.913794670948247401e-01
1.386185420141661882e+09,2.206000000000000000e+03,2.248000000000000000e+03,4.370300438434994161e-01
1.386185420145567894e+09,2.213000000000000000e+03,2.251000000000000000e+03,3.730396735045740098e-01
1.386185420149473906e+09,2.216000000000000000e+03,2.257000000000000000e+03,3.823375162130143723e-01
1.386185420153379917e+09,2.226000000000000000e+03,2.271000000000000000e+03,4.030780720900735137e-01
1.386185420157286882e+09,2.239000000000000000e+03,2.271000000000000000e+03,4.121919680525867324e-01
1.386185420161192894e+09,2.224000000000000000e+03,2.263000000000000000e+03,4.010650842853600295e-01
1.386185420165098906e+09,2.227000000000000000e+03,2.251000000000000000e+03,3.962657223732264367e-01
1.386185420169004917e+09,2.231000000000000000e+03,2.263000000000000000e+03,3.845542628854186074e-01
1.386185420172911882e+09,2.243000000000000000e+03,2.258000000000000000e+03,3.834300285172024259e-01
1.386185420176817894e+09,2.265000000000000000e+03,2.263000000000000000e+03,4.055597127512269306e-01
1.386185420180723906e+09,2.249000000000000000e+03,2.248000000000000000e+03,3.878219669098579292e-01
1.386185420184629917e+09,2.241000000000000000e+03,2.231000000000000000e+03,4.126510314518384570e-01
1.386185420188536882e+09,2.251000000000000000e+03,2.257000000000000000e+03,3.939080578837599322e-01
1.386185420192442894e+09,2.259000000000000000e+03,2.258000000000000000e+03,4.188280154244689024e-01
1.386185420196348906e+09,2.263000000000000000e+03,2.264000000000000000e+03,3.829767017664456041e-01
1.386185420200254917e+09,2.245000000000000000e+03,2.255000000000000000e+03,3.820072655612086754e-01
1.386185420204161882e+09,2.232000000000000000e+03,2.251000000000000000e+03,4.042200243087933353e-01
1.386185420208067894e+09,2.251000000000000000e+03,2.258000000000000000e+03,3.647634281772560438e-01
1.386185420211973906e+09,2.260000000000000000e+03,2.262000000000000000e+03,3.698192548634892107e-01
1.386185420215879917e+09,2.273000000000000000e+03,2.261000000000000000e+03,3.889748075217648315e-01
1.386185420219786882e+09,2.256000000000000000e+03,2.239000000000000000e+03,3.822455308837179322e-01
1.386185420223692894e+09,2.237000000000000000e+03,2.237000000000000000e+03,3.995726819078874170e-01
1.386185420227598906e+09,2.244000000000000000e+03,2.234000000000000000e+03,3.756510078557765420e-01
1.386185420231504917e+09,2.234000000000000000e+03,2.239000000000000000e+03,3.837508590134932618e-01
1.386185420235411882e+09,2.253000000000000000e+03,2.247000000000000000e+03,3.721476162941871335e-01
1.386185420239317894e+09,2.245000000000000000e+03,2.257000000000000000e+03,3.778968041126929966e-01
1.386185420243223906e+09,2.223000000000000000e+03,2.239000000000000000e+03,3.929613750581634202e-01
1.386185420247129917e+09,2.218000000000000000e+03,2.233000000000000000e+03,3.875897615350832881e-01
1.386185420251036882e+09,2.231000000000000000e+03,2.248000000000000000e+03,3.993314088502896153e-01
1.386185420254942894e+09,2.249000000000000000e+03,2.258000000000000000e+03,4.108642512470953578e-01
1.386185420258848906e+09,2.237000000000000000e+03,2.251000000000000000e+03,3.847530053541041717e-01
1.386185420262754917e+09,2.220000000000000000e+03,2.249000000000000000e+03,3.823383526780596009e-01
1.386185420266661882e+09,2.222000000000000000e+03,2.236000000000000000e+03,4.002534166744317057e-01
1.386185420270567894e+09,2.192000000000000000e+03,2.213000000000000000e+03,3.859857955724212975e-01
1.386185420274473906e+09,2.251000000000000000e+03,2.271000000000000000e+03,3.796810687050070632e-01
1.386185420278379917e+09,2.253000000000000000e+03,2.277000000000000000e+03,3.995861772598866546e-01
1.386185420282286882e+09,2.217000000000000000e+03,2.246000000000000000e+03,3.962168644929773276e-01
1.386185420286192894e+09,2.218000000000000000e+03,2.246000000000000000e+03,3.982383838585498159e-01
1.386185420290098906e+09,2.245000000000000000e+03,2.277000000000000000e+03,3.708704288642754587e-01
1.386185420294004917e+09,2.241000000000000000e+03,2.277000000000000000e+03,3.896451904953392997e-01
1.386185420297911882e+09,2.231000000000000000e+03,2.266000000000000000e+03,3.737101167380659783e-01
1.386185420301817894e+09,2.228000000000000000e+03,2.260000000000000000e+03,3.874959607562088459e-01
1.386185420305723906e+09,2.192000000000000000e+03,2.233000000000000000e+03,3.677364535530907030e-01
1.386185420309629917e+09,2.211000000000000000e+03,2.235000000000000000e+03,4.009121293106511219e-01
1.386185420313536882e+09,2.252000000000000000e+03,2.274000000000000000e+03,3.695624510077903935e-01
1.386185420317442894e+09,2.226000000000000000e+03,2.241000000000000000e+03,4.108376823625197183e-01
1.386185420321348906e+09,2.201000000000000000e+03,2.195000000000000000e+03,3.820774841474497974e-01
1.386185420325254917e+09,2.261000000000000000e+03,2.236000000000000000e+03,3.710519398660774293e-01
1.386185420329161882e+09,2.386000000000000000e+03,2.292000000000000000e+03,3.810180779723790767e-01
1.386185420333067894e+09,2.425000000000000000e+03,2.234000000000000000e+03,3.697634527451286734e-01
1.386185420336973906e+09,2.541000000000000000e+03,2.285000000000000000e+03,3.630873320498588797e-01
1.386185420340879917e+09,2.558000000000000000e+03,2.253000000000000000e+03,3.834682337831477605e-01
1.386185420344786882e+09,2.545000000000000000e+03,2.272000000000000000e+03,3.683906796949767415e-01
1.386185420348692894e+09,2.515000000000000000e+03,2.313000000000000000e+03,3.617153763346196982e-01
1.386185420352598906e+09,2.453000000000000000e+03,2.328000000000000000e+03,3.712505436413020554e-01
1.386185420356504917e+09,2.391000000000000000e+03,2.332000000000000000e+03,3.643056225842187246e-01
1.386185420360411882e+09,2.350000000000000000e+03,2.345000000000000000e+03,3.536909567242608743e-01
1.386185420364317894e+09,2.228000000000000000e+03,2.234000000000000000e+03,3.554294692133435074e-01
1.386185420368223906e+09,2.288000000000000000e+03,2.278000000000000000e+03,3.443666718683727757e-01
1.386185420372129917e+09,2.276000000000000000e+03,2.259000000000000000e+03,3.427297136008823353e-01
1.386185420376036882e+09,2.277000000000000000e+03,2.260000000000000000e+03,3.490423837775795679e-01
1.386185420379942894e+09,2.282000000000000000e+03,2.268000000000000000e+03,3.486489061247216581e-01
1.386185420383848906e+09,2.275000000000000000e+03,2.283000000000000000e+03,3.582998002116869474e-01
1.386185420387754917e+09,2.275000000000000000e+03,2.289000000000000000e+03,3.818481951613806880e-01
1.386185420391661882e+09,2.263000000000000000e+03,2.281000000000000000e+03,3.828107813444090457e-01
1.386185420395567894e+09,2.264000000000000000e+03,2.281000000000000000e+03,4.010416340906413080e-01
1.386185420399473906e+09,2.262000000000000000e+03,2.281000000000000000e+03,4.215138592506409987e-01
1.386185420403379917e+09,2.230000000000000000e+03,2.248000000000000000e+03,3.918175485647084066e-01
1.386185420407286882e+09,2.244000000000000000e+03,2.266000000000000000e+03,4.130608256729912942e-01
1.386185420411192894e+09,2.246000000000000000e+03,2.266000000000000000e+03,4.080550223703321988e-01
1.386185420415098906e+09,2.266000000000000000e+03,2.270000000000000000e+03,3.922705171037335070e-01
1.386185420419004917e+09,2.272000000000000000e+03,2.280000000000000000e+03,4.085496783376777463e-01
1.386185420422911882e+09,2.241000000000000000e+03,2.255000000000000000e+03,3.877087806111760848e-01
1.386185420426817894e+09,2.256000000000000000e+03,2.260000000000000000e+03,4.150701247098983471e-01
1.386185420430723906e+09,2.268000000000000000e+03,2.270000000000000000e+03,3.977621286874392093e-01
1.386185420434629917e+09,2.276000000000000000e+03,2.271000000000000000e+03,3.899472366362376485e-01
1.386185420438536882e+09,2.289000000000000000e+03,2.281000000000000000e+03,3.744986928442608498e-01
1.386185420442442894e+09,2.265000000000000000e+03,2.256000000000000000e+03,3.953202050509549981e-01
1.386185420446348906e+09,2.281000000000000000e+03,2.267000000000000000e+03,3.652069665174462187e-01
1.386185420450254917e+09,2.300000000000000000e+03,2.271000000000000000e+03,3.391968492005981162e-01
1.386185420454161882e+09,2.297000000000000000e+03,2.276000000000000000e+03,3.647243185342949889e-01
1.386185420458067894e+09,2.300000000000000000e+03,2.286000000000000000e+03,3.471656732980280546e-01
1.386185420461973906e+09,2.281000000000000000e+03,2.258000000000000000e+03,3.637741162425649488e-01
1.386185420465879917e+09,2.280000000000000000e+03,2.257000000000000000e+03,3.798838758486038358e-01
1.386185420469786882e+09,2.282000000000000000e+03,2.262000000000000000e+03,3.926127078277631410e-01
1.386185420473692894e+09,2.296000000000000000e+03,2.262000000000000000e+03,3.985675278321882953e-01
1.386185420477598906e+09,2.291000000000000000e+03,2.268000000000000000e+03,4.180193694179749064e-01
1.386185420481504917e+09,2.284000000000000000e+03,2.257000000000000000e+03,3.977989790617474375e-01
1.386185420485411882e+09,2.292000000000000000e+03,2.270000000000000000e+03,3.842707332780572749e-01
1.386185420489317894e+09,2.294000000000000000e+03,2.269000000000000000e+03,3.990722711184211402e-01
1.386185420493223906e+09,2.297000000000000000e+03,2.272000000000000000e+03,4.222777402687423187e-01
1.386185420497129917e+09,2.303000000000000000e+03,2.275000000000000000e+03,4.154894237374027188e-01
1.386185420501036882e+09,2.283000000000000000e+03,2.263000000000000000e+03,4.225946753917950716e-01
1.386185420504942894e+09,2.286000000000000000e+03,2.271000000000000000e+03,3.808648312631490729e-01
1.386185420508848906e+09,2.295000000000000000e+03,2.276000000000000000e+03,4.121920775725954611e-01
1.386185420512754917e+09,2.298000000000000000e+03,2.279000000000000000e+03,4.125316532075071763e-01
1.386185420516661882e+09,2.324000000000000000e+03,2.290000000000000000e+03,3.896494804275610901e-01
1.386185420520567894e+09,2.315000000000000000e+03,2.290000000000000000e+03,4.053659316824151926e-01
1.386185420524473906e+09,2.305000000000000000e+03,2.295000000000000000e+03,3.822986605225627832e-01
1.386185420528379917e+09,2.314000000000000000e+03,2.299000000000000000e+03,3.756339562121385756e-01
1.386185420532286882e+09,2.325000000000000000e+03,2.311000000000000000e+03,3.769222099454704322e-01
1.386185420536192894e+09,2.339000000000000000e+03,2.332000000000000000e+03,3.813596938359259392e-01
1.386185420540098906e+09,2.327000000000000000e+03,2.318000000000000000e+03,3.312260054394254860e-01
1.386185420544004917e+09,2.312000000000000000e+03,2.303000000000000000e+03,3.804787311459044696e-01
1.386185420547911882e+09,2.322000000000000000e+03,2.321000000000000000e+03,3.773222927548401939e-01
1.386185420551817894e+09,2.323000000000000000e+03,2.319000000000000000e+03,3.398528238365980947e-01
1.386185420555723906e+09,2.335000000000000000e+03,2.327000000000000000e+03,3.773248332364411706e-01
1.386185420559629917e+09,2.323000000000000000e+03,2.319000000000000000e+03,3.638099876323406257e-01
1.386185420563536882e+09,2.303000000000000000e+03,2.305000000000000000e+03,3.547093450256498803e-01
1.386185420567442894e+09,2.308000000000000000e+03,2.311000000000000000e+03,3.690987920724496663e-01
1.386185420571348906e+09,2.319000000000000000e+03,2.317000000000000000e+03,3.968377104665975486e-01
1.386185420575254917e+09,2.322000000000000000e+03,2.319000000000000000e+03,3.617310721301140175e-01
1.386185420579161882e+09,2.310000000000000000e+03,2.303000000000000000e+03,3.744938557902486309e-01
1.386185420583067894e+09,2.291000000000000000e+03,2.283000000000000000e+03,3.844891998698963809e-01
1.386185420586973906e+09,2.323000000000000000e+03,2.285000000000000000e+03,4.030631477171741084e-01
1.386185420590879917e+09,2.313000000000000000e+03,2.282000000000000000e+03,3.294874432119984098e-01
1.386185420594786882e+09,2.318000000000000000e+03,2.299000000000000000e+03,3.923335274560342256e-01
1.386185420598692894e+09,2.293000000000000000e+03,2.279000000000000000e+03,3.439845991222809651e-01
1.386185420602598906e+09,2.266000000000000000e+03,2.245000000000000000e+03,4.131943932148794962e-01
1.386185420606504917e+09,2.256000000000000000e+03,2.240000000000000000e+03,3.236691850934567682e-01
1.386185420610411882e+09,2.250000000000000000e+03,2.239000000000000000e+03,3.782251814462701534e-01
1.386185420614317894e+09,2.263000000000000000e+03,2.244000000000000000e+03,3.915330399728146338e-01
1.386185420618223906e+09,2.267000000000000000e+03,2.251000000000000000e+03,4.038491613421154591e-01
1.386185420622129917e+09,2.245000000000000000e+03,2.240000000000000000e+03,3.918701124298836769e-01
1.386185420626036882e+09,2.250000000000000000e+03,2.254000000000000000e+03,3.902186262614901757e-01
1.386185420629942894e+09,2.257000000000000000e+03,2.266000000000000000e+03,4.232874334466394384e-01
1.386185420633848906e+09,2.253000000000000000e+03,2.265000000000000000e+03,3.962343293474780426e-01
1.386185420637754917e+09,2.253000000000000000e+03,2.262000000000000000e+03,4.130017106939285476e-01
1.386185420641661882e+09,2.232000000000000000e+03,2.236000000000000000e+03,4.139408466822385169e-01
1.386185420645567894e+09,2.230000000000000000e+03,2.235000000000000000e+03,4.321730916238661901e-01
1.386185420649473906e+09,2.234000000000000000e+03,2.230000000000000000e+03,4.136336229709688395e-01
1.386185420653379917e+09,2.239000000000000000e+03,2.244000000000000000e+03,3.592931768212890287e-01
1.386185420657286882e+09,2.254000000000000000e+03,2.253000000000000000e+03,3.992021498925025780e-01
1.386185420661192894e+09,2.229000000000000000e+03,2.230000000000000000e+03,4.121515384304805796e-01
1.386185420665098906e+09,2.226000000000000000e+03,2.224000000000000000e+03,3.882910827155051647e-01
1.386185420669004917e+09,2.231000000000000000e+03,2.235000000000000000e+03,3.993132089204461943e-01
1.386185420672911882e+09,2.239000000000000000e+03,2.246000000000000000e+03,3.763682323936305973e-01
1.386185420676817894e+09,2.249000000000000000e+03,2.261000000000000000e+03,4.023474846763883672e-01
1.386185420680723906e+09,2.239000000000000000e+03,2.246000000000000000e+03,3.942502113040310396e-01
1.386185420684629917e+09,2.233000000000000000e+03,2.244000000000000000e+03,3.737209984357070525e-01
1.386185420688536882e+09,2.243000000000000000e+03,2.255000000000000000e+03,3.845153598478889823e-01
1.386185420692442894e+09,2.247000000000000000e+03,2.261000000000000000e+03,3.948755184245591465e-01
1.386185420696348906e+09,2.250000000000000000e+03,2.274000000000000000e+03,3.895669152537797331e-01
1.386185420700254917e+09,2.243000000000000000e+03,2.254000000000000000e+03,3.749613727950688036e-01
1.386185420704161882e+09,2.235000000000000000e+03,2.250000000000000000e+03,3.928615516353129999e-01
1.386185420708067894e+09,2.243000000000000000e+03,2.258000000000000000e+03,3.937241077900592856e-01
1.386185420711973906e+09,2.249000000000000000e+03,2.261000000000000000e+03,3.878863694575543919e-01
1.386185420715879917e+09,2.263000000000000000e+03,2.272000000000000000e+03,3.863490653112414686e-01
1.386185420719786882e+09,2.250000000000000000e+03,2.254000000000000000e+03,3.883688108352740809e-01
1.386185420723692894e+09,2.230000000000000000e+03,2.248000000000000000e+03,3.920486056532777042e-01
1.386185420727598906e+09,2.228000000000000000e+03,2.244000000000000000e+03,3.903763790734395833e-01
1.386185420731504917e+09,2.234000000000000000e+03,2.245000000000000000e+03,3.732743911440042917e-01
1.386185420735411882e+09,2.240000000000000000e+03,2.248000000000000000e+03,3.674302542604184207e-01
1.386185420739317894e+09,2.231000000000000000e+03,2.240000000000000000e+03,3.795405368383686362e-01
1.386185420743223906e+09,2.219000000000000000e+03,2.225000000000000000e+03,3.761902676401478463e-01
1.386185420747129917e+09,2.223000000000000000e+03,2.236000000000000000e+03,3.918007035265020921e-01
1.386185420751036882e+09,2.235000000000000000e+03,2.245000000000000000e+03,3.737107652495590404e-01
1.386185420754942894e+09,2.245000000000000000e+03,2.254000000000000000e+03,3.704633817301549170e-01
1.386185420758848906e+09,2.243000000000000000e+03,2.248000000000000000e+03,3.891831117089464831e-01
1.386185420762754917e+09,2.221000000000000000e+03,2.226000000000000000e+03,3.537936888837639460e-01
1.386185420766661882e+09,2.224000000000000000e+03,2.233000000000000000e+03,3.751464711749750158e-01
1.386185420770567894e+09,2.232000000000000000e+03,2.241000000000000000e+03,3.808227679277239597e-01
1.386185420774473906e+09,2.239000000000000000e+03,2.247000000000000000e+03,3.791013070822794040e-01
1.386185420778379917e+09,2.243000000000000000e+03,2.246000000000000000e+03,3.922261571958974846e-01
1.386185420782286882e+09,2.226000000000000000e+03,2.234000000000000000e+03,3.653373737614390437e-01
1.386185420786192894e+09,2.229000000000000000e+03,2.235000000000000000e+03,3.971767035889733899e-01
1.386185420790098906e+09,2.235000000000000000e+03,2.241000000000000000e+03,3.929838462683494793e-01
1.386185420794004917e+09,2.239000000000000000e+03,2.250000000000000000e+03,3.818752968201473141e-01
1.386185420797911882e+09,2.243000000000000000e+03,2.251000000000000000e+03,3.955911441615864721e-01
1.386185420801817894e+09,2.229000000000000000e+03,2.233000000000000000e+03,3.803491197154253989e-01
1.386185420805723906e+09,2.232000000000000000e+03,2.237000000000000000e+03,4.029189897339128246e-01
1.386185420809629917e+09,2.225000000000000000e+03,2.232000000000000000e+03,3.908948984463666010e-01
1.386185420813536882e+09,2.237000000000000000e+03,2.225000000000000000e+03,3.949325549147215675e-01
1.386185420817442894e+09,2.247000000000000000e+03,2.236000000000000000e+03,3.770553642764954416e-01
1.386185420821348906e+09,2.232000000000000000e+03,2.220000000000000000e+03,3.758310998799972991e-01
1.386185420825254917e+09,2.235000000000000000e+03,2.213000000000000000e+03,3.796806966239294479e-01
1.386185420829161882e+09,2.237000000000000000e+03,2.224000000000000000e+03,3.867446702348374954e-01
1.386185420833067894e+09,2.234000000000000000e+03,2.222000000000000000e+03,3.756386239644780023e-01
1.386185420836973906e+09,2.247000000000000000e+03,2.227000000000000000e+03,3.897444667963994025e-01
1.386185420840879917e+09,2.232000000000000000e+03,2.206000000000000000e+03,4.001339083451991296e-01
1.386185420844786882e+09,2.229000000000000000e+03,2.218000000000000000e+03,3.816730128856755666e-01
1.386185420848692894e+09,2.227000000000000000e+03,2.220000000000000000e+03,3.974349369438262558e-01
1.386185420852598906e+09,2.232000000000000000e+03,2.220000000000000000e+03,3.690319236506691691e-01
1.386185420856504917e+09,2.237000000000000000e+03,2.235000000000000000e+03,4.068404320818584941e-01
1.386185420860411882e+09,2.215000000000000000e+03,2.226000000000000000e+03,3.802649323064046794e-01
1.386185420864317894e+09,2.212000000000000000e+03,2.222000000000000000e+03,4.112492528164789496e-01
1.386185420868223906e+09,2.215000000000000000e+03,2.222000000000000000e+03,3.900319290807572337e-01
1.386185420872129917e+09,2.220000000000000000e+03,2.230000000000000000e+03,3.775872838290120770e-01
1.386185420876036882e+09,2.233000000000000000e+03,2.241000000000000000e+03,3.730570283608127813e-01
1.386185420879942894e+09,2.223000000000000000e+03,2.227000000000000000e+03,3.984097377164802500e-01
1.386185420883848906e+09,2.214000000000000000e+03,2.221000000000000000e+03,3.800303930554604914e-01
1.386185420887754917e+09,2.212000000000000000e+03,2.222000000000000000e+03,3.959379280304383686e-01
1.386185420891661882e+09,2.220000000000000000e+03,2.225000000000000000e+03,3.677409601340635437e-01
1.386185420895567894e+09,2.235000000000000000e+03,2.239000000000000000e+03,3.760224275093112523e-01
1.386185420899473906e+09,2.225000000000000000e+03,2.233000000000000000e+03,3.709347941082132838e-01
1.386185420903379917e+09,2.202000000000000000e+03,2.219000000000000000e+03,3.808931558156382069e-01
1.386185420907286882e+09,2.213000000000000000e+03,2.237000000000000000e+03,3.835312441354484791e-01
1.386185420911192894e+09,2.210000000000000000e+03,2.238000000000000000e+03,3.914015623979062442e-01
1.386185420915098906e+09,2.231000000000000000e+03,2.246000000000000000e+03,3.887855693811776980e-01
1.386185420919004917e+09,2.215000000000000000e+03,2.225000000000000000e+03,3.981997969464603493e-01
1.386185420922911882e+09,2.182000000000000000e+03,2.225000000000000000e+03,3.783565767616084985e-01
1.386185420926817894e+09,2.190000000000000000e+03,2.201000000000000000e+03,3.861042321359782203e-01
1.386185420930723906e+09,2.197000000000000000e+03,2.215000000000000000e+03,3.750449499528615283e-01
1.386185420934629917e+09,2.228000000000000000e+03,2.228000000000000000e+03,3.878946886739417232e-01
1.386185420938536882e+09,2.263000000000000000e+03,2.239000000000000000e+03,4.088530439794677562e-01
1.386185420942442894e+09,2.299000000000000000e+03,2.220000000000000000e+03,3.909569384226945221e-01
1.386185420946348906e+09,2.391000000000000000e+03,2.223000000000000000e+03,3.959404685120394563e-01
1.386185420950254917e+09,2.476000000000000000e+03,2.233000000000000000e+03,3.730251341255916842e-01
1.386185420954161882e+09,2.526000000000000000e+03,2.229000000000000000e+03,3.666612922791150364e-01
1.386185420958067894e+09,2.507000000000000000e+03,2.233000000000000000e+03,4.019993832196577799e-01
1.386185420961973906e+09,2.465000000000000000e+03,2.264000000000000000e+03,3.918065195650468624e-01
1.386185420965879917e+09,2.412000000000000000e+03,2.298000000000000000e+03,3.961895189250206339e-01
1.386185420969786882e+09,2.335000000000000000e+03,2.296000000000000000e+03,3.934256165060400212e-01
1.386185420973692894e+09,2.295000000000000000e+03,2.299000000000000000e+03,3.823303610651919149e-01
1.386185420977598906e+09,2.266000000000000000e+03,2.282000000000000000e+03,3.936355572760601440e-01
1.386185420981504917e+09,2.218000000000000000e+03,2.243000000000000000e+03,3.573705449368328457e-01
1.386185420985411882e+09,2.218000000000000000e+03,2.230000000000000000e+03,3.810288133245062214e-01
1.386185420989317894e+09,2.219000000000000000e+03,2.244000000000000000e+03,3.690330719368748458e-01
1.386185420993223906e+09,2.223000000000000000e+03,2.248000000000000000e+03,4.003864782243139464e-01
1.386185420997129917e+09,2.232000000000000000e+03,2.260000000000000000e+03,3.746428761749477365e-01
1.386185421001036882e+09,2.205000000000000000e+03,2.239000000000000000e+03,3.944314516144574734e-01
1.386185421004942894e+09,2.195000000000000000e+03,2.237000000000000000e+03,3.783552797386223743e-01
1.386185421008848906e+09,2.195000000000000000e+03,2.239000000000000000e+03,3.815791021085391810e-01
1.386185421012754917e+09,2.200000000000000000e+03,2.231000000000000000e+03,3.815618811632283114e-01
1.386185421016661882e+09,2.210000000000000000e+03,2.241000000000000000e+03,3.638527860431082228e-01
1.386185421020567894e+09,2.195000000000000000e+03,2.233000000000000000e+03,3.809928061107894504e-01
1.386185421024473906e+09,2.189000000000000000e+03,2.235000000000000000e+03,3.766357266456450414e-01
1.386185421028379917e+09,2.195000000000000000e+03,2.230000000000000000e+03,3.579791763208275412e-01
1.386185421032286882e+09,2.200000000000000000e+03,2.237000000000000000e+03,3.870125403939562725e-01
1.386185421036192894e+09,2.215000000000000000e+03,2.244000000000000000e+03,3.491857947291649999e-01
1.386185421040098906e+09,2.200000000000000000e+03,2.226000000000000000e+03,3.717098762971692283e-01
1.386185421044004917e+09,2.185000000000000000e+03,2.226000000000000000e+03,3.748020211822926662e-01
1.386185421047911882e+09,2.194000000000000000e+03,2.238000000000000000e+03,3.621522722145393836e-01
1.386185421051817894e+09,2.202000000000000000e+03,2.239000000000000000e+03,3.579087884329132940e-01
1.386185421055723906e+09,2.213000000000000000e+03,2.250000000000000000e+03,3.519706441650217732e-01
1.386185421059629917e+09,2.201000000000000000e+03,2.233000000000000000e+03,3.772701421005278943e-01
1.386185421063536882e+09,2.190000000000000000e+03,2.223000000000000000e+03,3.624744202987089103e-01
1.386185421067442894e+09,2.195000000000000000e+03,2.230000000000000000e+03,3.698402018803651492e-01
1.386185421071348906e+09,2.201000000000000000e+03,2.243000000000000000e+03,3.670611684830533683e-01
1.386185421075254917e+09,2.206000000000000000e+03,2.236000000000000000e+03,3.807930884835977192e-01
1.386185421079161882e+09,2.200000000000000000e+03,2.231000000000000000e+03,3.770265385145336046e-01
1.386185421083067894e+09,2.190000000000000000e+03,2.225000000000000000e+03,3.867174939685537050e-01
1.386185421086973906e+09,2.198000000000000000e+03,2.223000000000000000e+03,3.602889246108190724e-01
1.386185421090879917e+09,2.206000000000000000e+03,2.233000000000000000e+03,3.837361039422665376e-01
1.386185421094786882e+09,2.219000000000000000e+03,2.238000000000000000e+03,3.595019320013450592e-01
1.386185421098692894e+09,2.213000000000000000e+03,2.229000000000000000e+03,3.852197499798231117e-01
1.386185421102598906e+09,2.199000000000000000e+03,2.211000000000000000e+03,3.823266292545870471e-01
1.386185421106504917e+09,2.206000000000000000e+03,2.205000000000000000e+03,3.583517069568094016e-01
1.386185421110411882e+09,2.214000000000000000e+03,2.221000000000000000e+03,3.680138739526259695e-01
1.386185421114317894e+09,2.219000000000000000e+03,2.221000000000000000e+03,3.689123014971482650e-01
1.386185421118223906e+09,2.231000000000000000e+03,2.224000000000000000e+03,3.666378420843963148e-01
1.386185421122129917e+09,2.214000000000000000e+03,2.209000000000000000e+03,3.894864773507366040e-01
1.386185421126036882e+09,2.230000000000000000e+03,2.217000000000000000e+03,3.557784210044654394e-01
1.386185421129942894e+09,2.228000000000000000e+03,2.220000000000000000e+03,3.759446993895420031e-01
1.386185421133848906e+09,2.239000000000000000e+03,2.226000000000000000e+03,3.699043605188716555e-01
1.386185421137754917e+09,2.249000000000000000e+03,2.235000000000000000e+03,3.684025092906850762e-01
1.386185421141661882e+09,2.228000000000000000e+03,2.217000000000000000e+03,3.894101041226043503e-01
1.386185421145567894e+09,2.234000000000000000e+03,2.226000000000000000e+03,3.484855534447249825e-01
1.386185421149473906e+09,2.242000000000000000e+03,2.225000000000000000e+03,3.644100874554764280e-01
1.386185421153379917e+09,2.247000000000000000e+03,2.239000000000000000e+03,3.536229027125162849e-01
1.386185421157286882e+09,2.254000000000000000e+03,2.240000000000000000e+03,3.716479166673979373e-01
1.386185421161192894e+09,2.239000000000000000e+03,2.231000000000000000e+03,3.776894578668984481e-01
1.386185421165098906e+09,2.234000000000000000e+03,2.233000000000000000e+03,3.749204577458495891e-01
1.386185421169004917e+09,2.240000000000000000e+03,2.235000000000000000e+03,3.555320024194680295e-01
1.386185421172911882e+09,2.244000000000000000e+03,2.240000000000000000e+03,3.822677954884724505e-01
1.386185421176817894e+09,2.259000000000000000e+03,2.253000000000000000e+03,3.712443516956528411e-01
1.386185421180723906e+09,2.234000000000000000e+03,2.238000000000000000e+03,3.903078085481167525e-01
1.386185421184629917e+09,2.229000000000000000e+03,2.233000000000000000e+03,3.717092880455937776e-01
1.386185421188536882e+09,2.232000000000000000e+03,2.235000000000000000e+03,4.080111909324074526e-01
1.386185421192442894e+09,2.235000000000000000e+03,2.240000000000000000e+03,3.585922688517301227e-01
1.386185421196348906e+09,2.238000000000000000e+03,2.240000000000000000e+03,3.810119185479550197e-01
1.386185421200254917e+09,2.223000000000000000e+03,2.227000000000000000e+03,3.931170379031332374e-01
1.386185421204161882e+09,2.209000000000000000e+03,2.218000000000000000e+03,3.697297052783180549e-01
1.386185421208067894e+09,2.206000000000000000e+03,2.229000000000000000e+03,3.896101268754101898e-01
1.386185421211973906e+09,2.214000000000000000e+03,2.229000000000000000e+03,3.829227820531270199e-01
1.386185421215879917e+09,2.222000000000000000e+03,2.231000000000000000e+03,4.241592878023060509e-01
1.386185421219786882e+09,2.210000000000000000e+03,2.226000000000000000e+03,3.635763900621705735e-01
1.386185421223692894e+09,2.193000000000000000e+03,2.211000000000000000e+03,3.829980069950533750e-01
1.386185421227598906e+09,2.196000000000000000e+03,2.214000000000000000e+03,3.500235457975559017e-01
1.386185421231504917e+09,2.195000000000000000e+03,2.215000000000000000e+03,3.985564615287683354e-01
1.386185421235411882e+09,2.202000000000000000e+03,2.220000000000000000e+03,3.853405204195498035e-01
1.386185421239317894e+09,2.186000000000000000e+03,2.214000000000000000e+03,3.655063994822398410e-01
1.386185421243223906e+09,2.175000000000000000e+03,2.203000000000000000e+03,3.727634559121221214e-01
1.386185421247129917e+09,2.183000000000000000e+03,2.211000000000000000e+03,3.478134516287421096e-01
1.386185421251036882e+09,2.179000000000000000e+03,2.213000000000000000e+03,3.931613978109692598e-01
1.386185421254942894e+09,2.188000000000000000e+03,2.215000000000000000e+03,3.892618188132480617e-01
1.386185421258848906e+09,2.184000000000000000e+03,2.212000000000000000e+03,3.754463546543898023e-01
1.386185421262754917e+09,2.163000000000000000e+03,2.191000000000000000e+03,3.717898034256735817e-01
1.386185421266661882e+09,2.169000000000000000e+03,2.196000000000000000e+03,3.819543798315534477e-01
1.386185421270567894e+09,2.175000000000000000e+03,2.209000000000000000e+03,3.850144769621423047e-01
1.386185421274473906e+09,2.184000000000000000e+03,2.212000000000000000e+03,3.795037237678188236e-01
1.386185421278379917e+09,2.188000000000000000e+03,2.215000000000000000e+03,3.608504863037036436e-01
1.386185421282286882e+09,2.162000000000000000e+03,2.196000000000000000e+03,3.703875283633746296e-01
1.386185421286192894e+09,2.170000000000000000e+03,2.199000000000000000e+03,3.551258606188701927e-01
1.386185421290098906e+09,2.176000000000000000e+03,2.208000000000000000e+03,3.754794789571329616e-01
1.386185421294004917e+09,2.175000000000000000e+03,2.213000000000000000e+03,3.657363336320290648e-01
1.386185421297911882e+09,2.178000000000000000e+03,2.216000000000000000e+03,3.697279333497918152e-01
1.386185421301817894e+09,2.165000000000000000e+03,2.201000000000000000e+03,3.652054050203777935e-01
1.386185421305723906e+09,2.166000000000000000e+03,2.201000000000000000e+03,3.528111050166865548e-01
1.386185421309629917e+09,2.177000000000000000e+03,2.207000000000000000e+03,3.856799267527885045e-01
1.386185421313536882e+09,2.180000000000000000e+03,2.213000000000000000e+03,3.679448782601072443e-01
1.386185421317442894e+09,2.189000000000000000e+03,2.217000000000000000e+03,3.677327217424860573e-01
1.386185421321348906e+09,2.177000000000000000e+03,2.210000000000000000e+03,3.772935922952466159e-01
1.386185421325254917e+09,2.171000000000000000e+03,2.188000000000000000e+03,3.766802931589126047e-01
1.386185421329161882e+09,2.174000000000000000e+03,2.207000000000000000e+03,3.658481396916481998e-01
1.386185421333067894e+09,2.176000000000000000e+03,2.210000000000000000e+03,3.819815187940787116e-01
1.386185421336973906e+09,2.194000000000000000e+03,2.218000000000000000e+03,3.969966488685111594e-01
1.386185421340879917e+09,2.171000000000000000e+03,2.196000000000000000e+03,3.675003982391428226e-01
1.386185421344786882e+09,2.170000000000000000e+03,2.200000000000000000e+03,3.683965909059311317e-01
1.386185421348692894e+09,2.176000000000000000e+03,2.201000000000000000e+03,3.942387317897481092e-01
1.386185421352598906e+09,2.174000000000000000e+03,2.200000000000000000e+03,3.933441996184642298e-01
1.386185421356504917e+09,2.187000000000000000e+03,2.205000000000000000e+03,3.967239043516215258e-01
1.386185421360411882e+09,2.173000000000000000e+03,2.198000000000000000e+03,3.723435581114693527e-01
1.386185421364317894e+09,2.165000000000000000e+03,2.188000000000000000e+03,4.001680116324750625e-01
1.386185421368223906e+09,2.170000000000000000e+03,2.191000000000000000e+03,3.798245169603513549e-01
1.386185421372129917e+09,2.177000000000000000e+03,2.197000000000000000e+03,3.650775607358918151e-01
1.386185421376036882e+09,2.192000000000000000e+03,2.212000000000000000e+03,3.570830826524750146e-01
1.386185421379942894e+09,2.183000000000000000e+03,2.205000000000000000e+03,3.830415945237881648e-01
1.386185421383848906e+09,2.175000000000000000e+03,2.192000000000000000e+03,3.766630349098433195e-01
1.386185421387754917e+09,2.174000000000000000e+03,2.194000000000000000e+03,3.799563163997393689e-01
1.386185421391661882e+09,2.184000000000000000e+03,2.198000000000000000e+03,3.985068513560571235e-01
1.386185421395567894e+09,2.199000000000000000e+03,2.212000000000000000e+03,3.999545887000794941e-01
1.386185421399473906e+09,2.183000000000000000e+03,2.201000000000000000e+03,3.745095152384910753e-01
1.386185421403379917e+09,2.169000000000000000e+03,2.178000000000000000e+03,3.783378187101482659e-01
1.386185421407286882e+09,2.175000000000000000e+03,2.187000000000000000e+03,3.789101860583968806e-01
1.386185421411222935e+09,2.180000000000000000e+03,2.196000000000000000e+03,3.662048042739562970e-01
1.386185421415098906e+09,2.199000000000000000e+03,2.212000000000000000e+03,3.808103467326668934e-01
1.386185421419004917e+09,2.191000000000000000e+03,2.204000000000000000e+03,3.774872538007300049e-01
1.386185421422911882e+09,2.169000000000000000e+03,2.185000000000000000e+03,3.781251514179881923e-01
1.386185421426817894e+09,2.181000000000000000e+03,2.184000000000000000e+03,3.737017104795754552e-01
1.386185421430723906e+09,2.190000000000000000e+03,2.192000000000000000e+03,3.629028276605681391e-01
1.386185421434629917e+09,2.196000000000000000e+03,2.189000000000000000e+03,3.717378593767926009e-01
1.386185421438536882e+09,2.192000000000000000e+03,2.193000000000000000e+03,3.594166570442897113e-01
1.386185421442442894e+09,2.171000000000000000e+03,2.175000000000000000e+03,3.775428866174175280e-01
1.386185421446348906e+09,2.172000000000000000e+03,2.184000000000000000e+03,3.725091552342657542e-01
1.386185421450254917e+09,2.169000000000000000e+03,2.191000000000000000e+03,3.541931595288927426e-01
1.386185421454161882e+09,2.168000000000000000e+03,2.191000000000000000e+03,3.987983783153259409e-01
1.386185421458067894e+09,2.168000000000000000e+03,2.192000000000000000e+03,3.642317525339292539e-01
1.386185421461973906e+09,2.150000000000000000e+03,2.173000000000000000e+03,3.762024822297735938e-01
1.386185421465879917e+09,2.156000000000000000e+03,2.185000000000000000e+03,3.707545327823195125e-01
1.386185421469786882e+09,2.160000000000000000e+03,2.183000000000000000e+03,3.663999689296038031e-01
1.386185421473692894e+09,2.163000000000000000e+03,2.181000000000000000e+03,4.028299633578668049e-01
1.386185421477598906e+09,2.171000000000000000e+03,2.195000000000000000e+03,3.728991507247483295e-01
1.386185421481504917e+09,2.148000000000000000e+03,2.180000000000000000e+03,3.820689210218722875e-01
1.386185421485411882e+09,2.151000000000000000e+03,2.173000000000000000e+03,3.589983743050763065e-01
1.386185421489317894e+09,2.151000000000000000e+03,2.189000000000000000e+03,3.909105951983674609e-01
1.386185421493223906e+09,2.159000000000000000e+03,2.191000000000000000e+03,3.505308295653898343e-01
1.386185421497129917e+09,2.170000000000000000e+03,2.192000000000000000e+03,3.729423623463790083e-01
1.386185421501036882e+09,2.151000000000000000e+03,2.179000000000000000e+03,3.873643679222521508e-01
1.386185421504942894e+09,2.151000000000000000e+03,2.175000000000000000e+03,3.829919159608533574e-01
1.386185421508848906e+09,2.157000000000000000e+03,2.191000000000000000e+03,3.765471388278872622e-01
1.386185421512754917e+09,2.155000000000000000e+03,2.184000000000000000e+03,3.442472563202831903e-01
1.386185421516661882e+09,2.162000000000000000e+03,2.189000000000000000e+03,3.740900469093135783e-01
1.386185421520567894e+09,2.138000000000000000e+03,2.162000000000000000e+03,3.834672921023736247e-01
1.386185421524473906e+09,2.133000000000000000e+03,2.155000000000000000e+03,3.723253744422382328e-01
1.386185421528379917e+09,2.158000000000000000e+03,2.172000000000000000e+03,3.833313906843159868e-01
1.386185421532286882e+09,2.197000000000000000e+03,2.187000000000000000e+03,3.944139867599567584e-01
1.386185421536192894e+09,2.263000000000000000e+03,2.204000000000000000e+03,3.741825301003094406e-01
1.386185421540098906e+09,2.327000000000000000e+03,2.184000000000000000e+03,3.664003161415094745e-01
1.386185421544004917e+09,2.399000000000000000e+03,2.187000000000000000e+03,3.477913563256603835e-01
1.386185421547911882e+09,2.469000000000000000e+03,2.190000000000000000e+03,3.805820367311304464e-01
1.386185421551817894e+09,2.463000000000000000e+03,2.169000000000000000e+03,3.863163293501888917e-01
1.386185421555723906e+09,2.463000000000000000e+03,2.229000000000000000e+03,3.813707601393458990e-01
1.386185421559629917e+09,2.401000000000000000e+03,2.252000000000000000e+03,3.736126491910374270e-01
1.386185421563536882e+09,2.307000000000000000e+03,2.246000000000000000e+03,3.890877494330037267e-01
1.386185421567442894e+09,2.259000000000000000e+03,2.252000000000000000e+03,3.785684831527470484e-01
1.386185421571348906e+09,2.222000000000000000e+03,2.241000000000000000e+03,3.723847529388767397e-01
1.386185421575254917e+09,2.209000000000000000e+03,2.232000000000000000e+03,3.844126200363328083e-01
1.386185421579161882e+09,2.199000000000000000e+03,2.201000000000000000e+03,3.757818656143904201e-01
1.386185421583067894e+09,2.175000000000000000e+03,2.196000000000000000e+03,3.760854005578535553e-01
1.386185421586973906e+09,2.183000000000000000e+03,2.203000000000000000e+03,3.685605112726109134e-01
1.386185421590879917e+09,2.185000000000000000e+03,2.204000000000000000e+03,3.951590853356790056e-01
1.386185421594786882e+09,2.189000000000000000e+03,2.208000000000000000e+03,3.827822501864884819e-01
1.386185421598692894e+09,2.181000000000000000e+03,2.201000000000000000e+03,4.138518829573766267e-01
1.386185421602598906e+09,2.159000000000000000e+03,2.183000000000000000e+03,3.896175044110234964e-01
1.386185421606504917e+09,2.164000000000000000e+03,2.191000000000000000e+03,3.834744257287970859e-01
1.386185421610411882e+09,2.168000000000000000e+03,2.194000000000000000e+03,3.883067794675060247e-01
1.386185421614317894e+09,2.175000000000000000e+03,2.206000000000000000e+03,3.708964195405950459e-01
1.386185421618223906e+09,2.175000000000000000e+03,2.202000000000000000e+03,3.936103805868799155e-01
1.386185421622129917e+09,2.150000000000000000e+03,2.179000000000000000e+03,3.818134720578105767e-01
1.386185421626036882e+09,2.157000000000000000e+03,2.184000000000000000e+03,3.695847156125449118e-01
1.386185421629942894e+09,2.171000000000000000e+03,2.187000000000000000e+03,3.830089020837872393e-01
1.386185421633848906e+09,2.176000000000000000e+03,2.199000000000000000e+03,3.740024753798470991e-01
1.386185421637754917e+09,2.174000000000000000e+03,2.193000000000000000e+03,3.742009366355844024e-01
1.386185421641661882e+09,2.157000000000000000e+03,2.174000000000000000e+03,3.834314207125978369e-01
1.386185421645567894e+09,2.158000000000000000e+03,2.183000000000000000e+03,3.791765320242058701e-01
1.386185421649473906e+09,2.169000000000000000e+03,2.184000000000000000e+03,4.069278343096521811e-01
1.386185421653379917e+09,2.175000000000000000e+03,2.186000000000000000e+03,3.744391646543354657e-01
1.386185421657286882e+09,2.182000000000000000e+03,2.189000000000000000e+03,4.069228279539669479e-01
1.386185421661192894e+09,2.164000000000000000e+03,2.181000000000000000e+03,3.776898796863209506e-01
1.386185421665098906e+09,2.167000000000000000e+03,2.173000000000000000e+03,4.021261389996024782e-01
1.386185421669004917e+09,2.170000000000000000e+03,2.180000000000000000e+03,3.851565703258492679e-01
1.386185421672911882e+09,2.170000000000000000e+03,2.177000000000000000e+03,3.876470835424737915e-01
1.386185421676817894e+09,2.186000000000000000e+03,2.190000000000000000e+03,3.925777781187618221e-01
1.386185421680723906e+09,2.171000000000000000e+03,2.177000000000000000e+03,3.780177811578510072e-01
1.386185421684629917e+09,2.165000000000000000e+03,2.175000000000000000e+03,3.849957074326024742e-01
1.386185421688536882e+09,2.174000000000000000e+03,2.174000000000000000e+03,3.810150745415705753e-01
1.386185421692442894e+09,2.180000000000000000e+03,2.176000000000000000e+03,3.829921909565086047e-01
1.386185421696348906e+09,2.189000000000000000e+03,2.190000000000000000e+03,3.663996140656453626e-01
1.386185421700254917e+09,2.172000000000000000e+03,2.171000000000000000e+03,3.729549901468672823e-01
1.386185421704161882e+09,2.164000000000000000e+03,2.171000000000000000e+03,3.713691868102905191e-01
1.386185421708067894e+09,2.176000000000000000e+03,2.175000000000000000e+03,3.616835696197551187e-01
1.386185421711973906e+09,2.182000000000000000e+03,2.175000000000000000e+03,3.730720345150289052e-01
1.386185421715879917e+09,2.194000000000000000e+03,2.183000000000000000e+03,3.887832355050079292e-01
1.386185421719786882e+09,2.184000000000000000e+03,2.179000000000000000e+03,3.847430873368897775e-01
1.386185421723692894e+09,2.170000000000000000e+03,2.164000000000000000e+03,3.910018927993991200e-01
1.386185421727598906e+09,2.171000000000000000e+03,2.170000000000000000e+03,3.522385143241405503e-01
1.386185421731504917e+09,2.181000000000000000e+03,2.175000000000000000e+03,4.012106598114422162e-01
1.386185421735411882e+09,2.194000000000000000e+03,2.192000000000000000e+03,3.721823393977570227e-01
1.386185421739317894e+09,2.185000000000000000e+03,2.181000000000000000e+03,3.659357485248733166e-01
1.386185421743223906e+09,2.166000000000000000e+03,2.171000000000000000e+03,3.821654688877792472e-01
1.386185421747129917e+09,2.171000000000000000e+03,2.176000000000000000e+03,3.637527923620780257e-01
1.386185421751036882e+09,2.182000000000000000e+03,2.181000000000000000e+03,3.845308499944584124e-01
1.386185421754942894e+09,2.191000000000000000e+03,2.192000000000000000e+03,3.735766084995887359e-01
1.386185421758848906e+09,2.183000000000000000e+03,2.187000000000000000e+03,3.861189499034464179e-01
1.386185421762754917e+09,2.160000000000000000e+03,2.175000000000000000e+03,3.549014450340649551e-01
1.386185421766661882e+09,2.165000000000000000e+03,2.180000000000000000e+03,3.840766958654693308e-01
1.386185421770567894e+09,2.171000000000000000e+03,2.185000000000000000e+03,3.640070939964409336e-01
1.386185421774473906e+09,2.173000000000000000e+03,2.194000000000000000e+03,3.796636574148776200e-01
1.386185421778379917e+09,2.176000000000000000e+03,2.192000000000000000e+03,3.769173728914581023e-01
1.386185421782286882e+09,2.156000000000000000e+03,2.171000000000000000e+03,3.484897601608700768e-01
1.386185421786192894e+09,2.155000000000000000e+03,2.165000000000000000e+03,4.053410892923010600e-01
1.386185421790098906e+09,2.155000000000000000e+03,2.174000000000000000e+03,3.427810751372274423e-01
1.386185421794004917e+09,2.156000000000000000e+03,2.179000000000000000e+03,3.867483590026441487e-01
1.386185421797911882e+09,2.154000000000000000e+03,2.174000000000000000e+03,3.764951947790066145e-01
1.386185421801817894e+09,2.129000000000000000e+03,2.151000000000000000e+03,3.711061537051839609e-01
1.386185421805723906e+09,2.129000000000000000e+03,2.162000000000000000e+03,3.788433176366166055e-01
1.386185421809629917e+09,2.135000000000000000e+03,2.158000000000000000e+03,3.730399217180436766e-01
1.386185421813536882e+09,2.137000000000000000e+03,2.160000000000000000e+03,3.790251404595785800e-01
1.386185421817442894e+09,2.139000000000000000e+03,2.156000000000000000e+03,3.627865183677493333e-01
1.386185421821348906e+09,2.114000000000000000e+03,2.144000000000000000e+03,3.929295683432990627e-01
1.386185421825254917e+09,2.110000000000000000e+03,2.138000000000000000e+03,3.550964614311854506e-01
1.386185421829161882e+09,2.093000000000000000e+03,2.141000000000000000e+03,3.873763759064461354e-01
1.386185421833067894e+09,2.132000000000000000e+03,2.143000000000000000e+03,3.520669854254969700e-01
1.386185421836973906e+09,2.130000000000000000e+03,2.148000000000000000e+03,3.770193231067934247e-01
1.386185421840879917e+09,2.108000000000000000e+03,2.138000000000000000e+03,3.720427865156511471e-01
1.386185421844786882e+09,2.100000000000000000e+03,2.131000000000000000e+03,3.644231681618528285e-01
1.386185421848692894e+09,2.111000000000000000e+03,2.136000000000000000e+03,4.085087632884585318e-01
1.386185421852598906e+09,2.111000000000000000e+03,2.135000000000000000e+03,3.756649097230919665e-01
1.386185421856504917e+09,2.124000000000000000e+03,2.141000000000000000e+03,3.561393162155842562e-01
1.386185421860411882e+09,2.104000000000000000e+03,2.131000000000000000e+03,3.759150199454156516e-01
1.386185421864317894e+09,2.094000000000000000e+03,2.125000000000000000e+03,3.900234032589383615e-01
1.386185421868223906e+09,2.102000000000000000e+03,2.129000000000000000e+03,3.754153203186264554e-01
1.386185421872129917e+09,2.103000000000000000e+03,2.131000000000000000e+03,3.756756436404590227e-01
1.386185421876066923e+09,2.121000000000000000e+03,2.142000000000000000e+03,3.864180610037601937e-01
1.386185421879942894e+09,2.106000000000000000e+03,2.127000000000000000e+03,3.889740384904369908e-01
1.386185421883848906e+09,2.096000000000000000e+03,2.127000000000000000e+03,3.739038002432018004e-01
1.386185421887754917e+09,2.095000000000000000e+03,2.122000000000000000e+03,3.843641581498271620e-01
1.386185421891661882e+09,2.099000000000000000e+03,2.127000000000000000e+03,3.782966803166315506e-01
1.386185421895567894e+09,2.107000000000000000e+03,2.127000000000000000e+03,3.730325255305511067e-01
1.386185421899473906e+09,2.098000000000000000e+03,2.132000000000000000e+03,3.904108955715782647e-01
1.386185421903379917e+09,2.089000000000000000e+03,2.115000000000000000e+03,3.561898680690696040e-01
1.386185421907286882e+09,2.094000000000000000e+03,2.119000000000000000e+03,3.819702831889858485e-01
1.386185421911192894e+09,2.092000000000000000e+03,2.123000000000000000e+03,3.841718888397391840e-01
1.386185421915098906e+09,2.109000000000000000e+03,2.129000000000000000e+03,3.783591851551800778e-01
1.386185421919004917e+09,2.092000000000000000e+03,2.119000000000000000e+03,3.802785017876673113e-01
1.386185421922911882e+09,2.069000000000000000e+03,2.106000000000000000e+03,3.854302565235130373e-01
1.386185421926817894e+09,2.078000000000000000e+03,2.119000000000000000e+03,3.909612513110751753e-01
1.386185421930723906e+09,2.089000000000000000e+03,2.117000000000000000e+03,3.881044228385305273e-01
1.386185421934629917e+09,2.097000000000000000e+03,2.123000000000000000e+03,3.819210489233789696e-01
1.386185421938536882e+09,2.094000000000000000e+03,2.127000000000000000e+03,3.685246398828353476e-01
1.386185421942442894e+09,2.067000000000000000e+03,2.102000000000000000e+03,3.976138433780831427e-01
1.386185421946348906e+09,2.075000000000000000e+03,2.108000000000000000e+03,3.803405398509819291e-01
1.386185421950254917e+09,2.076000000000000000e+03,2.108000000000000000e+03,3.870619812649945812e-01
1.386185421954161882e+09,2.074000000000000000e+03,2.115000000000000000e+03,3.732941898746746645e-01
1.386185421958067894e+09,2.082000000000000000e+03,2.109000000000000000e+03,3.832030734073028633e-01
1.386185421961973906e+09,2.060000000000000000e+03,2.101000000000000000e+03,3.702017035166853542e-01
1.386185421965879917e+09,2.079000000000000000e+03,2.097000000000000000e+03,3.674978950613001505e-01
1.386185421969786882e+09,2.076000000000000000e+03,2.102000000000000000e+03,3.653631578323273121e-01
1.386185421973692894e+09,2.084000000000000000e+03,2.110000000000000000e+03,3.901245815734261102e-01
1.386185421977598906e+09,2.086000000000000000e+03,2.118000000000000000e+03,3.663490249084015993e-01
1.386185421981504917e+09,2.068000000000000000e+03,2.098000000000000000e+03,3.703807878611748983e-01
1.386185421985411882e+09,2.068000000000000000e+03,2.101000000000000000e+03,3.766208022727453031e-01
1.386185421989317894e+09,2.071000000000000000e+03,2.104000000000000000e+03,3.692020976576756430e-01
1.386185421993223906e+09,2.074000000000000000e+03,2.106000000000000000e+03,3.651509204898959471e-01
1.386185421997129917e+09,2.083000000000000000e+03,2.105000000000000000e+03,3.887731481861205207e-01
1.386185422001036882e+09,2.064000000000000000e+03,2.081000000000000000e+03,3.670749445697476521e-01
1.386185422004942894e+09,2.062000000000000000e+03,2.082000000000000000e+03,3.962943860073149249e-01
1.386185422008848906e+09,2.069000000000000000e+03,2.089000000000000000e+03,3.879910299344172531e-01
1.386185422012754917e+09,2.074000000000000000e+03,2.089000000000000000e+03,3.902908224251826486e-01
1.386185422016661882e+09,2.088000000000000000e+03,2.101000000000000000e+03,3.693538651294072661e-01
1.386185422020567894e+09,2.066000000000000000e+03,2.090000000000000000e+03,3.668303179999157226e-01
1.386185422024473906e+09,2.061000000000000000e+03,2.072000000000000000e+03,3.749252947998618080e-01
1.386185422028379917e+09,2.061000000000000000e+03,2.069000000000000000e+03,3.819010808910355825e-01
1.386185422032286882e+09,2.064000000000000000e+03,2.078000000000000000e+03,4.018030119309001780e-01
1.386185422036192894e+09,2.074000000000000000e+03,2.094000000000000000e+03,3.630777349406180132e-01
1.386185422040098906e+09,2.043000000000000000e+03,2.070000000000000000e+03,3.958266623970634335e-01
1.386185422044004917e+09,2.040000000000000000e+03,2.060000000000000000e+03,3.919088461657402878e-01
1.386185422047911882e+09,2.035000000000000000e+03,2.070000000000000000e+03,3.847010240014646643e-01
1.386185422051817894e+09,2.037000000000000000e+03,2.070000000000000000e+03,3.729287928651163764e-01
1.386185422055723906e+09,2.046000000000000000e+03,2.073000000000000000e+03,4.032050344754495308e-01
1.386185422059629917e+09,2.030000000000000000e+03,2.067000000000000000e+03,3.683922708437507021e-01
1.386185422063536882e+09,2.014000000000000000e+03,2.058000000000000000e+03,3.756983396297023381e-01
1.386185422067442894e+09,2.008000000000000000e+03,2.055000000000000000e+03,3.923976860945408429e-01
1.386185422071348906e+09,2.029000000000000000e+03,2.061000000000000000e+03,3.814666881889584582e-01
1.386185422075254917e+09,2.023000000000000000e+03,2.069000000000000000e+03,3.871802112231200743e-01
1.386185422079161882e+09,2.017000000000000000e+03,2.063000000000000000e+03,3.901848448386945334e-01
1.386185422083067894e+09,1.998000000000000000e+03,2.032000000000000000e+03,4.077522225022119917e-01
1.386185422086973906e+09,2.011000000000000000e+03,2.048000000000000000e+03,3.793690079397251669e-01
1.386185422090879917e+09,2.011000000000000000e+03,2.055000000000000000e+03,3.950900523394016428e-01
1.386185422094786882e+09,2.015000000000000000e+03,2.058000000000000000e+03,3.876615043146344197e-01
1.386185422098692894e+09,2.010000000000000000e+03,2.051000000000000000e+03,3.942914697391294299e-01
1.386185422102598906e+09,1.991000000000000000e+03,2.035000000000000000e+03,3.813038544138068753e-01
1.386185422106504917e+09,1.995000000000000000e+03,2.040000000000000000e+03,3.685740807538734343e-01
1.386185422110411882e+09,2.005000000000000000e+03,2.042000000000000000e+03,3.863399196731283070e-01
1.386185422114317894e+09,2.001000000000000000e+03,2.039000000000000000e+03,3.650437195314318872e-01
1.386185422118223906e+09,1.995000000000000000e+03,2.021000000000000000e+03,3.882141269748372592e-01
1.386185422122129917e+09,1.981000000000000000e+03,2.015000000000000000e+03,3.939966457015177115e-01
1.386185422126036882e+09,2.007000000000000000e+03,2.035000000000000000e+03,3.584396811755659051e-01
1.386185422129942894e+09,2.052000000000000000e+03,2.040000000000000000e+03,3.868394499982446000e-01
1.386185422133848906e+09,2.128000000000000000e+03,2.045000000000000000e+03,3.558925250712559052e-01
1.386185422137754917e+09,2.209000000000000000e+03,2.031000000000000000e+03,3.929528492363445480e-01
1.386185422141661882e+09,2.267000000000000000e+03,2.017000000000000000e+03,3.732125663816675543e-01
1.386185422145567894e+09,2.294000000000000000e+03,2.013000000000000000e+03,3.873356674626583507e-01
1.386185422149473906e+09,2.266000000000000000e+03,2.014000000000000000e+03,3.711259151320955851e-01
1.386185422153379917e+09,2.237000000000000000e+03,2.055000000000000000e+03,3.405313117690756952e-01
1.386185422157286882e+09,2.187000000000000000e+03,2.092000000000000000e+03,3.960365658633250296e-01
1.386185422161192894e+09,2.098000000000000000e+03,2.076000000000000000e+03,3.666465745116466168e-01
1.386185422165098906e+09,2.054000000000000000e+03,2.075000000000000000e+03,3.903030135803958744e-01
1.386185422169004917e+09,2.020000000000000000e+03,2.057000000000000000e+03,3.790101472182019204e-01
1.386185422172911882e+09,2.001000000000000000e+03,2.034000000000000000e+03,3.593982505090148605e-01
1.386185422176817894e+09,2.022000000000000000e+03,2.039000000000000000e+03,3.836698553367804410e-01
1.386185422180723906e+09,2.002000000000000000e+03,2.027000000000000000e+03,3.677355640019278615e-01
1.386185422184629917e+09,1.998000000000000000e+03,2.020000000000000000e+03,3.718342006372682418e-01
1.386185422188536882e+09,1.992000000000000000e+03,2.026000000000000000e+03,3.620908233593069792e-01
1.386185422192442894e+09,1.993000000000000000e+03,2.026000000000000000e+03,4.138408166539564448e-01
1.386185422196348906e+09,1.995000000000000000e+03,2.031000000000000000e+03,3.843284933654830260e-01
1.386185422200254917e+09,1.983000000000000000e+03,2.007000000000000000e+03,3.522139158432161521e-01
1.386185422204161882e+09,1.972000000000000000e+03,2.010000000000000000e+03,3.950518843772149458e-01
1.386185422208067894e+09,1.968000000000000000e+03,2.012000000000000000e+03,3.569956431209230230e-01
1.386185422211973906e+09,1.980000000000000000e+03,2.011000000000000000e+03,3.743780046641043135e-01
1.386185422215879917e+09,1.990000000000000000e+03,2.023000000000000000e+03,3.873940100626199756e-01
1.386185422219786882e+09,1.973000000000000000e+03,1.999000000000000000e+03,3.546434555884020456e-01
1.386185422223692894e+09,1.966000000000000000e+03,2.006000000000000000e+03,4.044502085850653073e-01
1.386185422227598906e+09,1.963000000000000000e+03,1.998000000000000000e+03,3.799652554324212117e-01
1.386185422231504917e+09,1.968000000000000000e+03,1.999000000000000000e+03,3.892001633525844495e-01
1.386185422235411882e+09,1.982000000000000000e+03,2.009000000000000000e+03,3.955888102854167032e-01
1.386185422239317894e+09,1.966000000000000000e+03,1.998000000000000000e+03,3.972631641359929411e-01
1.386185422243223906e+09,1.954000000000000000e+03,1.981000000000000000e+03,3.810340635893812999e-01
1.386185422247129917e+09,1.959000000000000000e+03,1.992000000000000000e+03,3.683826206483918897e-01
1.386185422251036882e+09,1.968000000000000000e+03,1.990000000000000000e+03,3.611565244250093398e-01
1.386185422254942894e+09,1.978000000000000000e+03,2.003000000000000000e+03,3.748070648417363149e-01
1.386185422258848906e+09,1.968000000000000000e+03,1.992000000000000000e+03,3.534061669194186184e-01
1.386185422262754917e+09,1.937000000000000000e+03,1.971000000000000000e+03,3.776020015964802745e-01
1.386185422266661882e+09,1.952000000000000000e+03,1.976000000000000000e+03,3.801131275309147517e-01
1.386185422270567894e+09,1.962000000000000000e+03,1.977000000000000000e+03,3.468386135523293667e-01
1.386185422274473906e+09,1.972000000000000000e+03,1.990000000000000000e+03,3.591108862665861601e-01
1.386185422278379917e+09,1.970000000000000000e+03,1.984000000000000000e+03,3.622722702751648427e-01
1.386185422282286882e+09,1.949000000000000000e+03,1.969000000000000000e+03,3.728586115826334479e-01
1.386185422286192894e+09,1.949000000000000000e+03,1.967000000000000000e+03,3.721280614727067171e-01
1.386185422290098906e+09,1.964000000000000000e+03,1.974000000000000000e+03,3.723649345998206739e-01
1.386185422294004917e+09,1.965000000000000000e+03,1.972000000000000000e+03,3.509082345591424401e-01
1.386185422297911882e+09,1.965000000000000000e+03,1.973000000000000000e+03,3.779574432850657528e-01
1.386185422301817894e+09,1.942000000000000000e+03,1.962000000000000000e+03,4.080470623221832405e-01
1.386185422305723906e+09,1.948000000000000000e+03,1.959000000000000000e+03,3.896026383850280661e-01
1.386185422309629917e+09,1.956000000000000000e+03,1.966000000000000000e+03,3.803616494739845422e-01
1.386185422313536882e+09,1.961000000000000000e+03,1.971000000000000000e+03,3.577845798301162450e-01
1.386185422317442894e+09,1.974000000000000000e+03,1.960000000000000000e+03,3.918979864677517577e-01
1.386185422321348906e+09,1.950000000000000000e+03,1.957000000000000000e+03,3.776535697382568113e-01
1.386185422325254917e+09,1.956000000000000000e+03,1.958000000000000000e+03,3.857229317689876424e-01
1.386185422329161882e+09,1.949000000000000000e+03,1.964000000000000000e+03,3.806771924016418840e-01
1.386185422333067894e+09,1.954000000000000000e+03,1.962000000000000000e+03,3.960057754367515281e-01
1.386185422336973906e+09,1.960000000000000000e+03,1.967000000000000000e+03,3.610957317333229888e-01
1.386185422340879917e+09,1.945000000000000000e+03,1.948000000000000000e+03,3.946002334260686473e-01
1.386185422344786882e+09,1.940000000000000000e+03,1.949000000000000000e+03,3.899398591006243420e-01
1.386185422348692894e+09,1.940000000000000000e+03,1.960000000000000000e+03,3.810105010051338947e-01
1.386185422352598906e+09,1.951000000000000000e+03,1.959000000000000000e+03,3.816841757962650128e-01
1.386185422356504917e+09,1.960000000000000000e+03,1.970000000000000000e+03,3.834548709073165584e-01
1.386185422360411882e+09,1.939000000000000000e+03,1.956000000000000000e+03,3.767679019921377215e-01
1.386185422364317894e+09,1.930000000000000000e+03,1.947000000000000000e+03,3.796368780988441660e-01
1.386185422368223906e+09,1.934000000000000000e+03,1.953000000000000000e+03,4.110162377588446603e-01
1.386185422372129917e+09,1.942000000000000000e+03,1.960000000000000000e+03,3.647068163760356363e-01
1.386185422376036882e+09,1.946000000000000000e+03,1.961000000000000000e+03,3.897878850234614001e-01
1.386185422379942894e+09,1.925000000000000000e+03,1.949000000000000000e+03,3.771910590891218718e-01
1.386185422383848906e+09,1.914000000000000000e+03,1.932000000000000000e+03,3.653594690645206589e-01
1.386185422387754917e+09,1.906000000000000000e+03,1.933000000000000000e+03,3.724254044705204159e-01
1.386185422391661882e+09,1.910000000000000000e+03,1.939000000000000000e+03,3.946991151681449317e-01
1.386185422395567894e+09,1.922000000000000000e+03,1.940000000000000000e+03,3.567339649074535712e-01
1.386185422399473906e+09,1.907000000000000000e+03,1.923000000000000000e+03,3.965265913820896770e-01
1.386185422403379917e+09,1.889000000000000000e+03,1.910000000000000000e+03,3.898113352181798996e-01
1.386185422407286882e+09,1.890000000000000000e+03,1.912000000000000000e+03,3.788297481553537516e-01
1.386185422411192894e+09,1.894000000000000000e+03,1.920000000000000000e+03,3.754304512969576235e-01
1.386185422415098906e+09,1.902000000000000000e+03,1.923000000000000000e+03,4.002302783008734322e-01
1.386185422419004917e+09,1.887000000000000000e+03,1.914000000000000000e+03,3.824467392264877530e-01
1.386185422422911882e+09,1.862000000000000000e+03,1.896000000000000000e+03,3.617415363126124106e-01
1.386185422426817894e+09,1.865000000000000000e+03,1.893000000000000000e+03,3.863162690902712804e-01
1.386185422430723906e+09,1.876000000000000000e+03,1.907000000000000000e+03,3.721416309539694600e-01
1.386185422434629917e+09,1.876000000000000000e+03,1.910000000000000000e+03,3.711730221269643470e-01
1.386185422438536882e+09,1.884000000000000000e+03,1.904000000000000000e+03,3.923172481914977139e-01
1.386185422442442894e+09,1.855000000000000000e+03,1.891000000000000000e+03,3.873841293491639970e-01
1.386185422446348906e+09,1.864000000000000000e+03,1.891000000000000000e+03,3.849878363395697889e-01
1.386185422450254917e+09,1.870000000000000000e+03,1.895000000000000000e+03,3.635321994560072323e-01
1.386185422454161882e+09,1.876000000000000000e+03,1.899000000000000000e+03,3.609937279536161725e-01
1.386185422458067894e+09,1.873000000000000000e+03,1.898000000000000000e+03,3.854044724526248800e-01
1.386185422461973906e+09,1.856000000000000000e+03,1.883000000000000000e+03,3.692848694368885409e-01
1.386185422465879917e+09,1.861000000000000000e+03,1.888000000000000000e+03,3.883612639979879821e-01
1.386185422469786882e+09,1.865000000000000000e+03,1.887000000000000000e+03,3.653139235667204332e-01
1.386185422473692894e+09,1.865000000000000000e+03,1.888000000000000000e+03,3.875149871077779862e-01
1.386185422477598906e+09,1.879000000000000000e+03,1.899000000000000000e+03,3.566957969452666521e-01
1.386185422481504917e+09,1.860000000000000000e+03,1.879000000000000000e+03,3.848752999871407621e-01
1.386185422485411882e+09,1.856000000000000000e+03,1.882000000000000000e+03,3.744639697406908496e-01
1.386185422489317894e+09,1.857000000000000000e+03,1.885000000000000000e+03,3.755463473789135698e-01
1.386185422493223906e+09,1.866000000000000000e+03,1.884000000000000000e+03,3.577794233028904758e-01
1.386185422497129917e+09,1.874000000000000000e+03,1.890000000000000000e+03,4.105779869872877574e-01
1.386185422501036882e+09,1.853000000000000000e+03,1.870000000000000000e+03,3.624387555143646633e-01
1.386185422504942894e+09,1.857000000000000000e+03,1.878000000000000000e+03,3.988599964722314706e-01
1.386185422508848906e+09,1.854000000000000000e+03,1.874000000000000000e+03,3.633284879353949615e-01
1.386185422512754917e+09,1.862000000000000000e+03,1.876000000000000000e+03,3.717996841391295604e-01
1.386185422516661882e+09,1.862000000000000000e+03,1.882000000000000000e+03,3.962057981895573677e-01
1.386185422520567894e+09,1.848000000000000000e+03,1.866000000000000000e+03,3.737087838460815270e-01
1.386185422524473906e+09,1.845000000000000000e+03,1.860000000000000000e+03,3.864486448249023764e-01
1.386185422528379917e+09,1.840000000000000000e+03,1.860000000000000000e+03,3.776698116990351295e-01
1.386185422532286882e+09,1.852000000000000000e+03,1.865000000000000000e+03,3.880057477018854506e-01
1.386185422536192894e+09,1.858000000000000000e+03,1.873000000000000000e+03,3.845915264705895842e-01
1.386185422540098906e+09,1.841000000000000000e+03,1.850000000000000000e+03,3.758448759666912498e-01
1.386185422544004917e+09,1.833000000000000000e+03,1.847000000000000000e+03,3.901123669838003627e-01
1.386185422547911882e+09,1.834000000000000000e+03,1.847000000000000000e+03,3.631716395004612741e-01
1.386185422551817894e+09,1.838000000000000000e+03,1.854000000000000000e+03,3.727438637868831783e-01
1.386185422555723906e+09,1.846000000000000000e+03,1.865000000000000000e+03,3.729179331671277353e-01
1.386185422559629917e+09,1.839000000000000000e+03,1.852000000000000000e+03,3.916286643315731730e-01
1.386185422563536882e+09,1.826000000000000000e+03,1.838000000000000000e+03,3.800761078549335092e-01
1.386185422567442894e+09,1.835000000000000000e+03,1.851000000000000000e+03,3.809747420048871236e-01
1.386185422571348906e+09,1.838000000000000000e+03,1.855000000000000000e+03,3.791677995969553461e-01
1.386185422575254917e+09,1.854000000000000000e+03,1.860000000000000000e+03,3.744343276003230248e-01
1.386185422579161882e+09,1.838000000000000000e+03,1.848000000000000000e+03,3.911488232171186352e-01
1.386185422583067894e+09,1.815000000000000000e+03,1.832000000000000000e+03,3.600212237533731985e-01
1.386185422586973906e+09,1.829000000000000000e+03,1.837000000000000000e+03,3.706533544678318748e-01
1.386185422590879917e+09,1.830000000000000000e+03,1.840000000000000000e+03,3.896729306222795897e-01
1.386185422594786882e+09,1.826000000000000000e+03,1.842000000000000000e+03,3.650835393805632600e-01
1.386185422598692894e+09,1.832000000000000000e+03,1.841000000000000000e+03,3.845494631351646930e-01
1.386185422602598906e+09,1.811000000000000000e+03,1.822000000000000000e+03,3.610939526309969727e-01
1.386185422606504917e+09,1.813000000000000000e+03,1.831000000000000000e+03,3.787310730187085639e-01
1.386185422610411882e+09,1.826000000000000000e+03,1.822000000000000000e+03,3.689532165463673685e-01
1.386185422614317894e+09,1.826000000000000000e+03,1.816000000000000000e+03,3.724143381671004560e-01
1.386185422618223906e+09,1.821000000000000000e+03,1.815000000000000000e+03,3.798935126528700801e-01
1.386185422622129917e+09,1.791000000000000000e+03,1.789000000000000000e+03,3.853949676462732343e-01
1.386185422626036882e+09,1.803000000000000000e+03,1.805000000000000000e+03,3.621524415162123978e-01
1.386185422629942894e+09,1.805000000000000000e+03,1.801000000000000000e+03,3.908613609327605820e-01
1.386185422633848906e+09,1.814000000000000000e+03,1.810000000000000000e+03,3.544178180663810629e-01
1.386185422637754917e+09,1.793000000000000000e+03,1.806000000000000000e+03,3.928456482778807102e-01
1.386185422641661882e+09,1.774000000000000000e+03,1.783000000000000000e+03,3.585812398520683564e-01
1.386185422645567894e+09,1.770000000000000000e+03,1.788000000000000000e+03,3.753325485394137795e-01
1.386185422649473906e+09,1.780000000000000000e+03,1.798000000000000000e+03,3.755415103249012398e-01
1.386185422653379917e+09,1.781000000000000000e+03,1.796000000000000000e+03,3.889030269602018475e-01
1.386185422657286882e+09,1.785000000000000000e+03,1.796000000000000000e+03,3.858020147803936650e-01
1.386185422661192894e+09,1.769000000000000000e+03,1.774000000000000000e+03,3.780303716545810877e-01
1.386185422665098906e+09,1.764000000000000000e+03,1.776000000000000000e+03,3.950408553775532905e-01
1.386185422669004917e+09,1.763000000000000000e+03,1.780000000000000000e+03,3.816791321368212531e-01
1.386185422672911882e+09,1.770000000000000000e+03,1.779000000000000000e+03,4.081236048519881754e-01
1.386185422676817894e+09,1.775000000000000000e+03,1.798000000000000000e+03,3.987652167088243660e-01
1.386185422680723906e+09,1.764000000000000000e+03,1.786000000000000000e+03,3.858475602781938907e-01
1.386185422684629917e+09,1.746000000000000000e+03,1.761000000000000000e+03,3.539723963646422833e-01
1.386185422688536882e+09,1.757000000000000000e+03,1.771000000000000000e+03,4.093182271081184931e-01
1.386185422692442894e+09,1.756000000000000000e+03,1.772000000000000000e+03,3.418101324340528935e-01
1.386185422696348906e+09,1.767000000000000000e+03,1.788000000000000000e+03,3.886142097842072429e-01
1.386185422700254917e+09,1.748000000000000000e+03,1.765000000000000000e+03,3.943692136412578764e-01
1.386185422704161882e+09,1.734000000000000000e+03,1.750000000000000000e+03,3.536304495498026057e-01
1.386185422708067894e+09,1.738000000000000000e+03,1.743000000000000000e+03,3.690503880545951132e-01
1.386185422711973906e+09,1.741000000000000000e+03,1.744000000000000000e+03,3.670129132019793738e-01
1.386185422715879917e+09,1.772000000000000000e+03,1.789000000000000000e+03,3.757537476673326049e-01
1.386185422719786882e+09,1.794000000000000000e+03,1.778000000000000000e+03,3.476923052819109738e-01
1.386185422723692894e+09,1.847000000000000000e+03,1.766000000000000000e+03,3.774627873177203163e-01
1.386185422727598906e+09,1.937000000000000000e+03,1.773000000000000000e+03,3.641170047381789843e-01
1.386185422731504917e+09,2.042000000000000000e+03,1.800000000000000000e+03,3.707657683874125976e-01
1.386185422735411882e+09,2.092000000000000000e+03,1.795000000000000000e+03,3.663799597674756159e-01
1.386185422739317894e+09,2.048000000000000000e+03,1.777000000000000000e+03,3.723814357738947090e-01
1.386185422743223906e+09,1.993000000000000000e+03,1.812000000000000000e+03,3.691493812296936516e-01
1.386185422747129917e+09,1.940000000000000000e+03,1.831000000000000000e+03,3.624236967522839192e-01
1.386185422751036882e+09,1.864000000000000000e+03,1.818000000000000000e+03,3.677202197226189240e-01
1.386185422754942894e+09,1.827000000000000000e+03,1.833000000000000000e+03,3.978221853472763136e-01
1.386185422758848906e+09,1.781000000000000000e+03,1.805000000000000000e+03,3.801404730988713343e-01
1.386185422762754917e+09,1.750000000000000000e+03,1.749000000000000000e+03,3.876498583681985410e-01
1.386185422766661882e+09,1.753000000000000000e+03,1.752000000000000000e+03,3.747184770239787577e-01
1.386185422770567894e+09,1.755000000000000000e+03,1.760000000000000000e+03,3.761619803914171278e-01
1.386185422774473906e+09,1.771000000000000000e+03,1.772000000000000000e+03,3.696847456408268728e-01
1.386185422778379917e+09,1.761000000000000000e+03,1.762000000000000000e+03,3.647956107992249564e-01
1.386185422782286882e+09,1.727000000000000000e+03,1.732000000000000000e+03,3.682435761495580495e-01
1.386185422786192894e+09,1.735000000000000000e+03,1.753000000000000000e+03,3.831980297478593256e-01
1.386185422790098906e+09,1.738000000000000000e+03,1.749000000000000000e+03,3.705597229906303358e-01
1.386185422794004917e+09,1.744000000000000000e+03,1.753000000000000000e+03,3.820051755942287519e-01
1.386185422797911882e+09,1.741000000000000000e+03,1.752000000000000000e+03,3.584370192176231651e-01
1.386185422801817894e+09,1.716000000000000000e+03,1.741000000000000000e+03,3.884032900296543467e-01
1.386185422805723906e+09,1.724000000000000000e+03,1.736000000000000000e+03,3.618305000374745228e-01
1.386185422809629917e+09,1.730000000000000000e+03,1.739000000000000000e+03,3.779993373188178518e-01
1.386185422813536882e+09,1.734000000000000000e+03,1.748000000000000000e+03,3.817867090023896459e-01
1.386185422817442894e+09,1.739000000000000000e+03,1.738000000000000000e+03,3.575015719971198491e-01
1.386185422821348906e+09,1.721000000000000000e+03,1.726000000000000000e+03,3.872261326280248550e-01
1.386185422825254917e+09,1.711000000000000000e+03,1.721000000000000000e+03,3.772614096732774813e-01
1.386185422829161882e+09,1.726000000000000000e+03,1.728000000000000000e+03,3.709842349792515925e-01
1.386185422833067894e+09,1.727000000000000000e+03,1.727000000000000000e+03,3.686136036076972378e-01
1.386185422836973906e+09,1.733000000000000000e+03,1.742000000000000000e+03,3.895770025726671415e-01
1.386185422840879917e+09,1.720000000000000000e+03,1.727000000000000000e+03,3.711495719322458475e-01
1.386185422844786882e+09,1.720000000000000000e+03,1.715000000000000000e+03,3.710513444407022021e-01
1.386185422848692894e+09,1.725000000000000000e+03,1.730000000000000000e+03,3.720136895840607805e-01
1.386185422852598906e+09,1.732000000000000000e+03,1.728000000000000000e+03,3.440163685333871291e-01
1.386185422856504917e+09,1.741000000000000000e+03,1.745000000000000000e+03,3.880353898422532755e-01
1.386185422860411882e+09,1.718000000000000000e+03,1.726000000000000000e+03,3.645438132992112612e-01
1.386185422864317894e+09,1.721000000000000000e+03,1.720000000000000000e+03,3.669144446707656160e-01
1.386185422868223906e+09,1.724000000000000000e+03,1.720000000000000000e+03,3.593586903514325304e-01
1.386185422872129917e+09,1.730000000000000000e+03,1.725000000000000000e+03,3.793358463332237029e-01
1.386185422876036882e+09,1.746000000000000000e+03,1.736000000000000000e+03,3.629004937843983702e-01
1.386185422879942894e+09,1.720000000000000000e+03,1.719000000000000000e+03,3.783460441888862880e-01
1.386185422883848906e+09,1.723000000000000000e+03,1.714000000000000000e+03,3.859068818626881781e-01
1.386185422887754917e+09,1.724000000000000000e+03,1.707000000000000000e+03,3.571163303445730186e-01
1.386185422891661882e+09,1.727000000000000000e+03,1.715000000000000000e+03,3.816708119639270480e-01
1.386185422895567894e+09,1.727000000000000000e+03,1.731000000000000000e+03,3.913808219864616245e-01
1.386185422899473906e+09,1.730000000000000000e+03,1.717000000000000000e+03,4.127462244261083102e-01
1.386185422903379917e+09,1.723000000000000000e+03,1.708000000000000000e+03,3.791104154166341500e-01
1.386185422907286882e+09,1.726000000000000000e+03,1.708000000000000000e+03,4.066896062909012288e-01
1.386185422911192894e+09,1.730000000000000000e+03,1.709000000000000000e+03,3.817425183962265267e-01
1.386185422915098906e+09,1.740000000000000000e+03,1.725000000000000000e+03,3.763634455562161474e-01
1.386185422919004917e+09,1.723000000000000000e+03,1.708000000000000000e+03,3.894903354202161605e-01
1.386185422922911882e+09,1.706000000000000000e+03,1.696000000000000000e+03,3.959602299389515245e-01
1.386185422926817894e+09,1.708000000000000000e+03,1.703000000000000000e+03,3.833746023059462216e-01
1.386185422930723906e+09,1.722000000000000000e+03,1.707000000000000000e+03,3.747021977594418018e-01
1.386185422934629917e+09,1.735000000000000000e+03,1.717000000000000000e+03,4.050757596147834816e-01
1.386185422938536882e+09,1.726000000000000000e+03,1.709000000000000000e+03,3.658223556207599314e-01
1.386185422942442894e+09,1.704000000000000000e+03,1.702000000000000000e+03,3.585577523535914413e-01
1.386185422946348906e+09,1.706000000000000000e+03,1.697000000000000000e+03,3.888685104620631661e-01
1.386185422950254917e+09,1.712000000000000000e+03,1.706000000000000000e+03,3.763151027547856353e-01
1.386185422954161882e+09,1.719000000000000000e+03,1.711000000000000000e+03,3.510822666356284705e-01
1.386185422958067894e+09,1.714000000000000000e+03,1.710000000000000000e+03,3.872654861801756443e-01
1.386185422961973906e+09,1.696000000000000000e+03,1.692000000000000000e+03,3.655742468885530005e-01
1.386185422965879917e+09,1.704000000000000000e+03,1.696000000000000000e+03,3.691997637815058741e-01
1.386185422969786882e+09,1.699000000000000000e+03,1.703000000000000000e+03,4.039860044409473439e-01
1.386185422973692894e+09,1.703000000000000000e+03,1.707000000000000000e+03,3.606643716355065754e-01
1.386185422977598906e+09,1.703000000000000000e+03,1.704000000000000000e+03,3.845862762057143946e-01
1.386185422981504917e+09,1.680000000000000000e+03,1.688000000000000000e+03,3.675514006072495565e-01
1.386185422985411882e+09,1.683000000000000000e+03,1.687000000000000000e+03,3.673833165672228951e-01
1.386185422989317894e+09,1.687000000000000000e+03,1.684000000000000000e+03,3.823813949980172655e-01
1.386185422993223906e+09,1.689000000000000000e+03,1.689000000000000000e+03,3.780844429742001855e-01
1.386185422997129917e+09,1.690000000000000000e+03,1.690000000000000000e+03,4.084124220279828910e-01
1.386185423001036882e+09,1.671000000000000000e+03,1.680000000000000000e+03,3.677280472946001799e-01
1.386185423004942894e+09,1.665000000000000000e+03,1.676000000000000000e+03,4.010319226788584546e-01
1.386185423008848906e+09,1.658000000000000000e+03,1.676000000000000000e+03,3.724401222379886134e-01
1.386185423012754917e+09,1.671000000000000000e+03,1.678000000000000000e+03,3.857489224453072296e-01
1.386185423016661882e+09,1.669000000000000000e+03,1.688000000000000000e+03,3.835956093793865262e-01
1.386185423020567894e+09,1.659000000000000000e+03,1.675000000000000000e+03,3.707793378686752295e-01
1.386185423024473906e+09,1.659000000000000000e+03,1.670000000000000000e+03,3.537927993326009934e-01
1.386185423028379917e+09,1.664000000000000000e+03,1.679000000000000000e+03,4.016774044371612673e-01
1.386185423032286882e+09,1.652000000000000000e+03,1.667000000000000000e+03,3.818396320358031781e-01
1.386185423036192894e+09,1.675000000000000000e+03,1.678000000000000000e+03,3.776829971428870003e-01
1.386185423040098906e+09,1.660000000000000000e+03,1.670000000000000000e+03,3.867902157326374990e-01
1.386185423044004917e+09,1.653000000000000000e+03,1.669000000000000000e+03,3.820592469138478497e-01
1.386185423047911882e+09,1.657000000000000000e+03,1.668000000000000000e+03,3.893682100888525843e-01
1.386185423051817894e+09,1.656000000000000000e+03,1.672000000000000000e+03,3.846085781142275506e-01
1.386185423055723906e+09,1.670000000000000000e+03,1.685000000000000000e+03,3.768456301119067486e-01
1.386185423059629917e+09,1.659000000000000000e+03,1.668000000000000000e+03,3.866423063303857655e-01
1.386185423063536882e+09,1.647000000000000000e+03,1.656000000000000000e+03,3.845890232927471342e-01
1.386185423067442894e+09,1.651000000000000000e+03,1.663000000000000000e+03,3.784560319294079100e-01
1.386185423071348906e+09,1.658000000000000000e+03,1.666000000000000000e+03,3.824108305329537716e-01
1.386185423075254917e+09,1.670000000000000000e+03,1.674000000000000000e+03,3.725180569631892924e-01
1.386185423079161882e+09,1.659000000000000000e+03,1.668000000000000000e+03,3.839768724426186886e-01
1.386185423083067894e+09,1.643000000000000000e+03,1.641000000000000000e+03,3.780154099779230448e-01
1.386185423086973906e+09,1.648000000000000000e+03,1.664000000000000000e+03,4.025496720036908505e-01
1.386185423090879917e+09,1.647000000000000000e+03,1.663000000000000000e+03,3.879061308844661271e-01
1.386185423094786882e+09,1.665000000000000000e+03,1.671000000000000000e+03,3.790100797844846436e-01
1.386185423098692894e+09,1.661000000000000000e+03,1.665000000000000000e+03,3.604643488827007358e-01
1.386185423102598906e+09,1.632000000000000000e+03,1.647000000000000000e+03,3.829082335873317255e-01
1.386185423106504917e+09,1.644000000000000000e+03,1.652000000000000000e+03,3.759632752264899791e-01
1.386185423110411882e+09,1.648000000000000000e+03,1.664000000000000000e+03,3.706880402676434594e-01
1.386185423114317894e+09,1.658000000000000000e+03,1.666000000000000000e+03,4.078731995473701133e-01
1.386185423118223906e+09,1.651000000000000000e+03,1.663000000000000000e+03,3.686581701209648010e-01
1.386185423122129917e+09,1.632000000000000000e+03,1.643000000000000000e+03,3.843248045976763727e-01
1.386185423126036882e+09,1.641000000000000000e+03,1.651000000000000000e+03,3.922312008553410223e-01
1.386185423129942894e+09,1.647000000000000000e+03,1.660000000000000000e+03,3.718997141674116325e-01
1.386185423133848906e+09,1.655000000000000000e+03,1.661000000000000000e+03,3.940968823352311023e-01
1.386185423137754917e+09,1.651000000000000000e+03,1.666000000000000000e+03,3.880007040424419129e-01
1.386185423141661882e+09,1.632000000000000000e+03,1.644000000000000000e+03,3.627215500463832898e-01
1.386185423145567894e+09,1.629000000000000000e+03,1.648000000000000000e+03,3.741296070668959084e-01
1.386185423149473906e+09,1.643000000000000000e+03,1.654000000000000000e+03,4.138974284551768523e-01
1.386185423153379917e+09,1.642000000000000000e+03,1.659000000000000000e+03,3.889051542309401865e-01
1.386185423157286882e+09,1.664000000000000000e+03,1.669000000000000000e+03,3.756364966937396632e-01
1.386185423161192894e+09,1.649000000000000000e+03,1.653000000000000000e+03,4.070711132633232365e-01
1.386185423165098906e+09,1.636000000000000000e+03,1.659000000000000000e+03,4.066180701167813050e-01
1.386185423169004917e+09,1.657000000000000000e+03,1.663000000000000000e+03,3.634244532887660473e-01
1.386185423172911882e+09,1.654000000000000000e+03,1.660000000000000000e+03,3.805574009464478547e-01
1.386185423176817894e+09,1.665000000000000000e+03,1.664000000000000000e+03,3.458060526922493993e-01
1.386185423180723906e+09,1.645000000000000000e+03,1.651000000000000000e+03,4.086826633670299636e-01
1.386185423184629917e+09,1.644000000000000000e+03,1.647000000000000000e+03,3.744988621459339750e-01
1.386185423188536882e+09,1.644000000000000000e+03,1.645000000000000000e+03,3.949411878652828722e-01
1.386185423192442894e+09,1.651000000000000000e+03,1.647000000000000000e+03,3.886452441199703678e-01
1.386185423196348906e+09,1.659000000000000000e+03,1.667000000000000000e+03,3.843286416240102588e-01
1.386185423200254917e+09,1.654000000000000000e+03,1.651000000000000000e+03,4.009962578945142075e-01
1.386185423204161882e+09,1.642000000000000000e+03,1.641000000000000000e+03,3.831524842500590999e-01
1.386185423208067894e+09,1.645000000000000000e+03,1.646000000000000000e+03,3.899854045984245676e-01
1.386185423211973906e+09,1.651000000000000000e+03,1.643000000000000000e+03,3.732261358629301862e-01
1.386185423215879917e+09,1.661000000000000000e+03,1.652000000000000000e+03,4.169429771199701928e-01
1.386185423219786882e+09,1.644000000000000000e+03,1.640000000000000000e+03,3.750387374423199693e-01
1.386185423223692894e+09,1.633000000000000000e+03,1.632000000000000000e+03,4.171971084961536569e-01
1.386185423227598906e+09,1.633000000000000000e+03,1.635000000000000000e+03,3.861152611356399866e-01
1.386185423231504917e+09,1.619000000000000000e+03,1.644000000000000000e+03,3.803458025504432571e-01
1.386185423235411882e+09,1.645000000000000000e+03,1.647000000000000000e+03,3.924692222686608778e-01
1.386185423239317894e+09,1.627000000000000000e+03,1.643000000000000000e+03,3.842100568019261031e-01
1.386185423243223906e+09,1.609000000000000000e+03,1.627000000000000000e+03,3.723798977112385833e-01
1.386185423247129917e+09,1.619000000000000000e+03,1.642000000000000000e+03,3.666120580135081575e-01
1.386185423251036882e+09,1.623000000000000000e+03,1.640000000000000000e+03,3.778403989169041299e-01
1.386185423254942894e+09,1.627000000000000000e+03,1.647000000000000000e+03,3.888373068246270270e-01
1.386185423258848906e+09,1.629000000000000000e+03,1.644000000000000000e+03,3.655411225858098412e-01
1.386185423262754917e+09,1.607000000000000000e+03,1.631000000000000000e+03,3.920939445456462780e-01
1.386185423266661882e+09,1.613000000000000000e+03,1.637000000000000000e+03,3.900383276318380998e-01
1.386185423270567894e+09,1.615000000000000000e+03,1.639000000000000000e+03,3.709755025520012905e-01
1.386185423274473906e+09,1.632000000000000000e+03,1.652000000000000000e+03,3.802340672723143467e-01
1.386185423278379917e+09,1.618000000000000000e+03,1.648000000000000000e+03,3.657285548418857113e-01
1.386185423282286882e+09,1.604000000000000000e+03,1.632000000000000000e+03,4.013244286226599344e-01
1.386185423286192894e+09,1.620000000000000000e+03,1.643000000000000000e+03,3.531202900447948378e-01
1.386185423290098906e+09,1.622000000000000000e+03,1.640000000000000000e+03,3.973854960727879471e-01
1.386185423294004917e+09,1.623000000000000000e+03,1.646000000000000000e+03,3.937328402173096986e-01
1.386185423297911882e+09,1.614000000000000000e+03,1.620000000000000000e+03,3.628558899673723914e-01
1.386185423301817894e+09,1.597000000000000000e+03,1.608000000000000000e+03,3.739258955462835265e-01
1.386185423305723906e+09,1.619000000000000000e+03,1.630000000000000000e+03,3.834783211020351690e-01
1.386185423309629917e+09,1.654000000000000000e+03,1.654000000000000000e+03,3.783500026915617154e-01
